{
  "AcquisitionMatrixPE": 80,
  "AcquisitionNumber": 1,
  "AcquisitionTime": "20:25:48.532500",
  "BandwidthPerPixelPhaseEncode": 20.492,
  "BaseResolution": 80,
  "BodyPartExamined": "BRAIN",
  "ConsistencyInfo": "N4_VE11C_LATEST_20160120",
  "ConversionSoftware": "dcm2niix",
  "ConversionSoftwareVersion": "v1.0.20190410  GCC6.3.0",
  "DerivedVendorReportedEchoSpacing": 0.000609994,
  "DeviceSerialNumber": "66018",
  "DwellTime": 3.3e-06,
  "EchoTime": 0.03,
  "EchoTrainLength": 60,
  "EffectiveEchoSpacing": 0.000609994,
  "FlipAngle": 71,
  "ImageOrientationPatientDICOM": [0.999204, -0.0158126, 0.0366186, 0.0169178, 0.999405, -0.0300713],
  "ImageType": [
    "ORIGINAL",
    "PRIMARY",
    "M",
    "ND",
    "NORM",
    "MOSAIC"
],
  "ImagingFrequency": 123.164,
  "InPlanePhaseEncodingDirectionDICOM": "COL",
  "InstitutionAddress": "Stadium_1952_Princeton_NJ_US_08544",
  "InstitutionName": "Princeton_University",
  "InstitutionalDepartmentName": "NeuroScience",
  "MRAcquisitionType": "2D",
  "MagneticFieldStrength": 3,
  "Manufacturer": "Siemens",
  "ManufacturersModelName": "Prisma",
  "Modality": "MR",
  "MultibandAccelerationFactor": 2,
  "PartialFourier": 0.75,
  "PatientPosition": "HFS",
  "PercentPhaseFOV": 100,
  "PhaseEncodingDirection": "j-",
  "PhaseEncodingSteps": 60,
  "PhaseResolution": 1,
  "PixelBandwidth": 1895,
  "ProcedureStepDescription": "000005_NEU502_NEU502B-2026",
  "ProtocolName": "func_ses-01_run-01_task-lang-task",
  "PulseSequenceDetails": "%SiemensSeq%_ep2d_bold",
  "ReceiveCoilActiveElements": "HC1-7",
  "ReceiveCoilName": "HeadNeck_64",
  "ReconMatrixPE": 80,
  "RefLinesPE": 24,
  "RepetitionTime": 2,
  "SAR": 0.0425388,
  "ScanOptions": "PFP_FS",
  "ScanningSequence": "EP",
  "SequenceName": "_epfid2d1_80",
  "SequenceVariant": "SK",
  "SeriesDescription": "func_ses-01_run-01_task-lang-task",
  "SeriesNumber": 8,
  "ShimSetting": [772, 468, 2061, 466, -52, -143, -29, 38],
  "SliceThickness": 2.5,
  "SliceTiming": [0.9525, 0, 1.025, 0.0725, 1.1, 0.145, 1.1725, 0.22, 1.245, 0.2925, 1.32, 0.365, 1.3925, 0.44, 1.465, 0.5125, 1.54, 0.585, 1.6125, 0.66, 1.685, 0.7325, 1.76, 0.805, 1.8325, 0.88, 1.905, 0.9525, 0, 1.025, 0.0725, 1.1, 0.145, 1.1725, 0.22, 1.245, 0.2925, 1.32, 0.365, 1.3925, 0.44, 1.465, 0.5125, 1.54, 0.585, 1.6125, 0.66, 1.685, 0.7325, 1.76, 0.805, 1.8325, 0.88, 1.905],
  "SoftwareVersions": "syngo_MR_E11",
  "SpacingBetweenSlices": 2.5,
  "StationName": "AWP66018",
  "TaskName": "langXtask",
  "TotalReadoutTime": 0.0481895,
  "TxRefAmp": 216.081,
  "dcmmeta_affine": [
    [-2.4980103969573975, 0.04229451343417168, 0.09030333161354065, 95.70167541503906],
    [0.039531465619802475, 2.498511552810669, -0.07666726410388947, -82.8906021118164],
    [0.09154660254716873, 0.07517832517623901, 2.497191905975342, -74.89892578125],
    [0.0, 0.0, 0.0, 1.0]
],
  "dcmmeta_reorient_transform": [
    [0.0, -1.0, 0.0, 79.0],
    [1.0, 0.0, 0.0, 0.0],
    [0.0, 0.0, 1.0, 0.0],
    [0.0, 0.0, 0.0, 1.0]
],
  "dcmmeta_shape": [80, 80, 54, 164],
  "dcmmeta_slice_dim": 2,
  "dcmmeta_version": 0.6,
  "global": {
    "const": {
      "AcquisitionMatrix": [80, 0, 0, 80],
      "AngioFlag": "N",
      "BitsAllocated": 16,
      "BitsStored": 12,
      "BodyPartExamined": "BRAIN",
      "Columns": 640,
      "EchoNumbers": 1,
      "EchoTime": 30.0,
      "EchoTrainLength": 60,
      "FlipAngle": 71.0,
      "HighBit": 11,
      "ImageOrientationPatient": [0.9992042019739, -0.0158125858677, 0.03661864123476, 0.01691780504228, 0.99940457423041, -0.0300713298655],
      "ImagePositionPatient": [-810.32834596939, -803.00619338179, -73.54295621211],
      "ImageType": [
        "ORIGINAL",
        "PRIMARY",
        "M",
        "ND",
        "NORM",
        "MOSAIC"
],
      "ImagedNucleus": "1H",
      "ImagingFrequency": 123.164159,
      "InPlanePhaseEncodingDirection": "COL",
      "MRAcquisitionType": "2D",
      "MagneticFieldStrength": 3.0,
      "Manufacturer": "SIEMENS",
      "ManufacturerModelName": "Prisma",
      "Modality": "MR",
      "NumberOfAverages": 1.0,
      "NumberOfPhaseEncodingSteps": 60,
      "PercentPhaseFieldOfView": 100.0,
      "PercentSampling": 100.0,
      "PerformedProcedureStepStartTime": "170031.584000",
      "PhotometricInterpretation": "MONOCHROME2",
      "PixelBandwidth": 1895.0,
      "PixelRepresentation": 0,
      "PixelSpacing": [2.5, 2.5],
      "ProtocolName": "func_ses-01_run-01_task-lang-task",
      "RepetitionTime": 2000.0,
      "Rows": 640,
      "SAR": 0.04253877749391,
      "SamplesPerPixel": 1,
      "ScanOptions": [
        "PFP",
        "FS"
],
      "ScanningSequence": "EP",
      "SequenceName": "*epfid2d1_80",
      "SequenceVariant": "SK",
      "SeriesDescription": "func_ses-01_run-01_task-lang-task",
      "SeriesNumber": 8,
      "SeriesTime": "173407.192000",
      "SliceLocation": -68.815926475224,
      "SliceThickness": 2.5,
      "SmallestImagePixelValue": 0,
      "SoftwareVersions": "syngo MR E11",
      "SpacingBetweenSlices": 2.5000000401761,
      "SpecificCharacterSet": "ISO_IR 100",
      "StudyID": "1",
      "StudyTime": "170031.517000",
      "TransmitCoilName": "Body",
      "VariableFlipAngleFlag": "N",
      "WindowCenterWidthExplanation": "Algo1",
      "dBdt": 0.0},
    "slices": {}
  },
  "time": {
    "samples": {
      "AcquisitionNumber": [1, 2, 3, 4, 5, 6, 7, 8, 9, 10, 11, 12, 13, 14, 15, 16, 17, 18, 19, 20, 21, 22, 23, 24, 25, 26, 27, 28, 29, 30, 31, 32, 33, 34, 35, 36, 37, 38, 39, 40, 41, 42, 43, 44, 45, 46, 47, 48, 49, 50, 51, 52, 53, 54, 55, 56, 57, 58, 59, 60, 61, 62, 63, 64, 65, 66, 67, 68, 69, 70, 71, 72, 73, 74, 75, 76, 77, 78, 79, 80, 81, 82, 83, 84, 85, 86, 87, 88, 89, 90, 91, 92, 93, 94, 95, 96, 97, 98, 99, 100, 101, 102, 103, 104, 105, 106, 107, 108, 109, 110, 111, 112, 113, 114, 115, 116, 117, 118, 119, 120, 121, 122, 123, 124, 125, 126, 127, 128, 129, 130, 131, 132, 133, 134, 135, 136, 137, 138, 139, 140, 141, 142, 143, 144, 145, 146, 147, 148, 149, 150, 151, 152, 153, 154, 155, 156, 157, 158, 159, 160, 161, 162, 163, 164],
      "AcquisitionTime": ["202548.532500", "202550.532500", "202552.532500", "202554.532500", "202556.532500", "202558.532500", "202600.532500", "202602.532500", "202604.532500", "202606.532500", "202608.532500", "202610.532500", "202612.532500", "202614.532500", "202616.532500", "202618.532500", "202620.532500", "202622.532500", "202624.532500", "202626.532500", "202628.532500", "202630.532500", "202632.532500", "202634.532500", "202636.532500", "202638.532500", "202640.532500", "202642.532500", "202644.532500", "202646.532500", "202648.532500", "202650.532500", "202652.532500", "202654.532500", "202656.532500", "202658.532500", "202700.532500", "202702.532500", "202704.532500", "202706.532500", "202708.532500", "202710.532500", "202712.532500", "202714.532500", "202716.532500", "202718.532500", "202720.532500", "202722.532500", "202724.532500", "202726.532500", "202728.532500", "202730.532500", "202732.532500", "202734.532500", "202736.532500", "202738.532500", "202740.532500", "202742.532500", "202744.532500", "202746.532500", "202748.532500", "202750.532500", "202752.532500", "202754.532500", "202756.532500", "202758.532500", "202800.532500", "202802.532500", "202804.532500", "202806.532500", "202808.532500", "202810.532500", "202812.532500", "202814.532500", "202816.532500", "202818.532500", "202820.532500", "202822.532500", "202824.532500", "202826.532500", "202828.532500", "202830.532500", "202832.532500", "202834.532500", "202836.532500", "202838.532500", "202840.532500", "202842.532500", "202844.532500", "202846.532500", "202848.532500", "202850.532500", "202852.532500", "202854.532500", "202856.532500", "202858.532500", "202900.532500", "202902.532500", "202904.532500", "202906.532500", "202908.532500", "202910.532500", "202912.532500", "202914.532500", "202916.532500", "202918.532500", "202920.532500", "202922.532500", "202924.532500", "202926.532500", "202928.532500", "202930.532500", "202932.532500", "202934.532500", "202936.532500", "202938.532500", "202940.532500", "202942.532500", "202944.532500", "202946.532500", "202948.532500", "202950.532500", "202952.532500", "202954.532500", "202956.532500", "202958.532500", "203000.532500", "203002.532500", "203004.532500", "203006.532500", "203008.532500", "203010.532500", "203012.532500", "203014.532500", "203016.532500", "203018.532500", "203020.532500", "203022.532500", "203024.532500", "203026.532500", "203028.532500", "203030.532500", "203032.532500", "203034.532500", "203036.532500", "203038.532500", "203040.532500", "203042.532500", "203044.532500", "203046.532500", "203048.532500", "203050.532500", "203052.532500", "203054.532500", "203056.532500", "203058.532500", "203100.532500", "203102.532500", "203104.532500", "203106.532500", "203108.532500", "203110.532500", "203112.532500", "203114.532500"],
      "ContentTime": ["173407.196000", "173407.200000", "173407.207000", "173407.210000", "173407.212000", "173407.215000", "173407.224000", "173407.227000", "173407.230000", "173407.233000", "173407.236000", "173407.239000", "173407.242000", "173407.245000", "173407.248000", "173407.251000", "173407.254000", "173407.256000", "173407.259000", "173407.262000", "173407.265000", "173407.268000", "173407.271000", "173407.274000", "173407.277000", "173407.280000", "173407.283000", "173447.180000", "173447.183000", "173447.186000", "173447.189000", "173447.192000", "173447.195000", "173447.198000", "173447.201000", "173447.204000", "173447.207000", "173447.210000", "173447.213000", "173447.216000", "173447.219000", "173447.230000", "173447.233000", "173447.236000", "173447.239000", "173447.241000", "173447.245000", "173527.179000", "173527.182000", "173527.185000", "173527.188000", "173527.199000", "173527.202000", "173527.205000", "173527.208000", "173527.211000", "173527.214000", "173527.217000", "173527.220000", "173527.222000", "173527.225000", "173527.228000", "173527.231000", "173527.234000", "173527.237000", "173527.240000", "173527.243000", "173547.179000", "173547.182000", "173547.185000", "173547.188000", "173547.191000", "173547.194000", "173547.197000", "173547.207000", "173547.210000", "173547.212000", "173627.180000", "173627.183000", "173627.193000", "173627.196000", "173627.199000", "173627.202000", "173627.205000", "173627.208000", "173627.211000", "173627.214000", "173627.217000", "173627.220000", "173627.223000", "173627.226000", "173627.229000", "173627.231000", "173627.234000", "173627.237000", "173627.240000", "173627.243000", "173707.180000", "173707.183000", "173707.186000", "173707.189000", "173707.198000", "173707.201000", "173707.204000", "173707.207000", "173707.210000", "173707.213000", "173707.216000", "173707.219000", "173707.222000", "173707.225000", "173707.228000", "173707.231000", "173707.234000", "173707.237000", "173707.240000", "173707.242000", "173747.179000", "173747.182000", "173747.185000", "173747.188000", "173747.191000", "173747.194000", "173747.197000", "173747.200000", "173747.203000", "173747.206000", "173747.209000", "173747.212000", "173747.222000", "173747.225000", "173747.228000", "173747.231000", "173747.233000", "173747.236000", "173747.239000", "173747.242000", "173827.180000", "173827.183000", "173827.186000", "173827.189000", "173827.192000", "173827.195000", "173827.198000", "173827.201000", "173827.204000", "173827.207000", "173827.210000", "173827.213000", "173827.216000", "173827.219000", "173827.222000", "173827.225000", "173827.227000", "173827.231000", "173827.233000", "173827.236000", "173842.175000", "173842.178000", "173842.181000", "173842.184000", "173842.187000", "173842.190000", "173842.193000"],
      "InstanceCreationTime": ["173407.196000", "173407.200000", "173407.207000", "173407.210000", "173407.212000", "173407.215000", "173407.224000", "173407.227000", "173407.230000", "173407.233000", "173407.236000", "173407.239000", "173407.242000", "173407.245000", "173407.248000", "173407.251000", "173407.254000", "173407.256000", "173407.259000", "173407.262000", "173407.265000", "173407.268000", "173407.271000", "173407.274000", "173407.277000", "173407.280000", "173407.283000", "173447.180000", "173447.183000", "173447.186000", "173447.189000", "173447.192000", "173447.195000", "173447.198000", "173447.201000", "173447.204000", "173447.207000", "173447.210000", "173447.213000", "173447.216000", "173447.219000", "173447.230000", "173447.233000", "173447.236000", "173447.239000", "173447.241000", "173447.245000", "173527.179000", "173527.182000", "173527.185000", "173527.188000", "173527.199000", "173527.202000", "173527.205000", "173527.208000", "173527.211000", "173527.214000", "173527.217000", "173527.220000", "173527.222000", "173527.225000", "173527.228000", "173527.231000", "173527.234000", "173527.237000", "173527.240000", "173527.243000", "173547.179000", "173547.182000", "173547.185000", "173547.188000", "173547.191000", "173547.194000", "173547.197000", "173547.207000", "173547.210000", "173547.212000", "173627.180000", "173627.183000", "173627.193000", "173627.196000", "173627.199000", "173627.202000", "173627.205000", "173627.208000", "173627.211000", "173627.214000", "173627.217000", "173627.220000", "173627.223000", "173627.226000", "173627.229000", "173627.231000", "173627.234000", "173627.237000", "173627.240000", "173627.243000", "173707.180000", "173707.183000", "173707.186000", "173707.189000", "173707.198000", "173707.201000", "173707.204000", "173707.207000", "173707.210000", "173707.213000", "173707.216000", "173707.219000", "173707.222000", "173707.225000", "173707.228000", "173707.231000", "173707.234000", "173707.237000", "173707.240000", "173707.242000", "173747.179000", "173747.182000", "173747.185000", "173747.188000", "173747.191000", "173747.194000", "173747.197000", "173747.200000", "173747.203000", "173747.206000", "173747.209000", "173747.212000", "173747.222000", "173747.225000", "173747.228000", "173747.231000", "173747.233000", "173747.236000", "173747.239000", "173747.242000", "173827.180000", "173827.183000", "173827.186000", "173827.189000", "173827.192000", "173827.195000", "173827.198000", "173827.201000", "173827.204000", "173827.207000", "173827.210000", "173827.213000", "173827.216000", "173827.219000", "173827.222000", "173827.225000", "173827.227000", "173827.231000", "173827.233000", "173827.236000", "173842.175000", "173842.178000", "173842.181000", "173842.184000", "173842.187000", "173842.190000", "173842.193000"],
      "InstanceNumber": [1, 2, 3, 4, 5, 6, 7, 8, 9, 10, 11, 12, 13, 14, 15, 16, 17, 18, 19, 20, 21, 22, 23, 24, 25, 26, 27, 28, 29, 30, 31, 32, 33, 34, 35, 36, 37, 38, 39, 40, 41, 42, 43, 44, 45, 46, 47, 48, 49, 50, 51, 52, 53, 54, 55, 56, 57, 58, 59, 60, 61, 62, 63, 64, 65, 66, 67, 68, 69, 70, 71, 72, 73, 74, 75, 76, 77, 78, 79, 80, 81, 82, 83, 84, 85, 86, 87, 88, 89, 90, 91, 92, 93, 94, 95, 96, 97, 98, 99, 100, 101, 102, 103, 104, 105, 106, 107, 108, 109, 110, 111, 112, 113, 114, 115, 116, 117, 118, 119, 120, 121, 122, 123, 124, 125, 126, 127, 128, 129, 130, 131, 132, 133, 134, 135, 136, 137, 138, 139, 140, 141, 142, 143, 144, 145, 146, 147, 148, 149, 150, 151, 152, 153, 154, 155, 156, 157, 158, 159, 160, 161, 162, 163, 164],
      "LargestImagePixelValue": [2067, 1985, 1842, 2264, 1780, 1997, 1899, 1877, 2181, 1781, 2099, 2342, 1828, 2017, 1771, 1988, 1904, 1892, 2349, 1994, 1870, 2170, 1848, 2016, 1977, 1809, 2080, 1887, 2339, 1875, 2353, 1809, 2241, 1788, 2220, 1842, 2428, 1743, 2138, 1828, 2058, 1952, 2110, 2079, 1830, 2127, 1973, 1992, 2122, 1883, 2154, 1976, 1907, 2116, 1941, 2011, 2256, 1876, 1981, 1949, 1936, 2211, 2177, 1856, 2142, 2055, 1873, 2228, 2034, 1904, 2270, 1910, 2123, 2251, 1819, 2085, 2150, 1821, 2023, 2049, 1748, 2102, 1788, 1918, 2317, 1747, 1990, 2063, 1872, 2205, 2307, 1925, 2158, 1885, 2036, 1888, 2165, 1749, 2063, 2098, 1942, 2128, 2303, 1784, 2066, 1992, 1962, 1904, 2285, 1817, 2375, 2093, 1883, 2284, 1914, 2008, 2388, 1814, 2202, 2076, 1931, 2332, 2131, 1887, 2133, 1872, 2176, 2057, 1868, 1953, 2290, 1979, 1959, 1998, 2012, 1941, 1945, 1824, 1984, 2282, 1882, 1800, 2137, 2102, 1914, 2234, 1949, 1960, 2100, 1883, 2107, 1857, 2259, 1944, 2144, 1932, 2093, 1880, 2288, 1923, 2105, 1910, 2056, 1942],
      "WindowCenter": [710.0, 709.0, 707.0, 708.0, 706.0, 707.0, 706.0, 706.0, 707.0, 705.0, 707.0, 706.0, 705.0, 707.0, 706.0, 706.0, 706.0, 706.0, 707.0, 705.0, 705.0, 706.0, 705.0, 706.0, 705.0, 705.0, 706.0, 706.0, 707.0, 705.0, 707.0, 705.0, 707.0, 705.0, 707.0, 705.0, 707.0, 704.0, 706.0, 704.0, 706.0, 705.0, 706.0, 705.0, 705.0, 706.0, 706.0, 706.0, 706.0, 705.0, 707.0, 706.0, 705.0, 707.0, 706.0, 707.0, 708.0, 706.0, 707.0, 706.0, 706.0, 707.0, 706.0, 705.0, 706.0, 705.0, 705.0, 706.0, 705.0, 705.0, 707.0, 706.0, 705.0, 706.0, 705.0, 706.0, 706.0, 704.0, 706.0, 706.0, 704.0, 706.0, 705.0, 706.0, 707.0, 705.0, 707.0, 707.0, 706.0, 706.0, 706.0, 705.0, 706.0, 705.0, 706.0, 705.0, 706.0, 704.0, 707.0, 707.0, 706.0, 706.0, 706.0, 705.0, 706.0, 706.0, 706.0, 706.0, 708.0, 705.0, 706.0, 705.0, 704.0, 707.0, 705.0, 705.0, 707.0, 705.0, 706.0, 706.0, 705.0, 706.0, 705.0, 705.0, 707.0, 706.0, 691.0, 707.0, 706.0, 707.0, 706.0, 702.0, 701.0, 703.0, 704.0, 704.0, 704.0, 704.0, 704.0, 705.0, 704.0, 703.0, 705.0, 704.0, 704.0, 706.0, 705.0, 706.0, 706.0, 706.0, 706.0, 706.0, 708.0, 707.0, 706.0, 706.0, 707.0, 706.0, 706.0, 705.0, 706.0, 705.0, 707.0, 706.0],
      "WindowWidth": [1527.0, 1523.0, 1518.0, 1521.0, 1514.0, 1519.0, 1516.0, 1516.0, 1518.0, 1513.0, 1517.0, 1516.0, 1512.0, 1517.0, 1514.0, 1516.0, 1514.0, 1515.0, 1518.0, 1512.0, 1512.0, 1515.0, 1511.0, 1515.0, 1513.0, 1511.0, 1516.0, 1514.0, 1517.0, 1512.0, 1516.0, 1512.0, 1517.0, 1513.0, 1519.0, 1513.0, 1516.0, 1509.0, 1514.0, 1509.0, 1514.0, 1513.0, 1515.0, 1513.0, 1511.0, 1516.0, 1515.0, 1514.0, 1514.0, 1513.0, 1516.0, 1514.0, 1513.0, 1516.0, 1516.0, 1516.0, 1519.0, 1514.0, 1517.0, 1515.0, 1516.0, 1518.0, 1515.0, 1512.0, 1514.0, 1513.0, 1512.0, 1514.0, 1513.0, 1512.0, 1517.0, 1514.0, 1512.0, 1514.0, 1511.0, 1515.0, 1515.0, 1510.0, 1515.0, 1515.0, 1511.0, 1515.0, 1512.0, 1515.0, 1518.0, 1512.0, 1516.0, 1517.0, 1515.0, 1516.0, 1515.0, 1512.0, 1516.0, 1513.0, 1516.0, 1512.0, 1515.0, 1511.0, 1517.0, 1518.0, 1515.0, 1514.0, 1516.0, 1511.0, 1515.0, 1515.0, 1514.0, 1516.0, 1519.0, 1513.0, 1513.0, 1512.0, 1510.0, 1516.0, 1512.0, 1512.0, 1516.0, 1513.0, 1515.0, 1514.0, 1512.0, 1515.0, 1513.0, 1511.0, 1517.0, 1513.0, 1477.0, 1518.0, 1514.0, 1517.0, 1515.0, 1505.0, 1503.0, 1506.0, 1508.0, 1509.0, 1509.0, 1509.0, 1508.0, 1511.0, 1508.0, 1507.0, 1511.0, 1509.0, 1510.0, 1514.0, 1511.0, 1515.0, 1515.0, 1514.0, 1513.0, 1514.0, 1519.0, 1516.0, 1516.0, 1515.0, 1516.0, 1515.0, 1516.0, 1512.0, 1514.0, 1512.0, 1517.0, 1515.0]
    },
    "slices": {}
  }
}