{
  "AcquisitionMatrixPE": 80,
  "AcquisitionNumber": 1,
  "AcquisitionTime": "19:27:24.072500",
  "BandwidthPerPixelPhaseEncode": 20.492,
  "BaseResolution": 80,
  "BodyPartExamined": "BRAIN",
  "ConsistencyInfo": "N4_VE11C_LATEST_20160120",
  "ConversionSoftware": "dcm2niix",
  "ConversionSoftwareVersion": "v1.0.20190410  GCC6.3.0",
  "DerivedVendorReportedEchoSpacing": 0.000609994,
  "DeviceSerialNumber": "66018",
  "DwellTime": 3.3e-06,
  "EchoTime": 0.03,
  "EchoTrainLength": 60,
  "EffectiveEchoSpacing": 0.000609994,
  "FlipAngle": 71,
  "ImageOrientationPatientDICOM": [0.998978, 0.0252437, -0.0374845, -0.0315687, 0.983323, -0.179105],
  "ImageType": [
    "ORIGINAL",
    "PRIMARY",
    "M",
    "ND",
    "NORM",
    "MOSAIC"
],
  "ImagingFrequency": 123.164,
  "InPlanePhaseEncodingDirectionDICOM": "COL",
  "InstitutionAddress": "Stadium_1952_Princeton_NJ_US_08544",
  "InstitutionName": "Princeton_University",
  "InstitutionalDepartmentName": "NeuroScience",
  "MRAcquisitionType": "2D",
  "MagneticFieldStrength": 3,
  "Manufacturer": "Siemens",
  "ManufacturersModelName": "Prisma",
  "Modality": "MR",
  "MultibandAccelerationFactor": 2,
  "PartialFourier": 0.75,
  "PatientPosition": "HFS",
  "PercentPhaseFOV": 100,
  "PhaseEncodingDirection": "j-",
  "PhaseEncodingSteps": 60,
  "PhaseResolution": 1,
  "PixelBandwidth": 1895,
  "ProcedureStepDescription": "000005_NEU502_NEU502B-2026",
  "ProtocolName": "func_ses-01_run-01_task-moral",
  "PulseSequenceDetails": "%SiemensSeq%_ep2d_bold",
  "ReceiveCoilActiveElements": "HC1-7",
  "ReceiveCoilName": "HeadNeck_64",
  "ReconMatrixPE": 80,
  "RefLinesPE": 24,
  "RepetitionTime": 2,
  "SAR": 0.0600179,
  "ScanOptions": "PFP_FS",
  "ScanningSequence": "EP",
  "SequenceName": "_epfid2d1_80",
  "SequenceVariant": "SK",
  "SeriesDescription": "func_ses-01_run-01_task-moral",
  "SeriesNumber": 8,
  "ShimSetting": [740, 520, 2074, 588, -21, 58, 87, 66],
  "SliceThickness": 2.5,
  "SliceTiming": [0.9525, 0, 1.025, 0.0725, 1.1, 0.1475, 1.1725, 0.22, 1.245, 0.2925, 1.32, 0.3675, 1.3925, 0.44, 1.465, 0.5125, 1.54, 0.5875, 1.6125, 0.66, 1.685, 0.7325, 1.76, 0.8075, 1.8325, 0.88, 1.905, 0.9525, 0, 1.025, 0.0725, 1.1, 0.1475, 1.1725, 0.22, 1.245, 0.2925, 1.32, 0.3675, 1.3925, 0.44, 1.465, 0.5125, 1.54, 0.5875, 1.6125, 0.66, 1.685, 0.7325, 1.76, 0.8075, 1.8325, 0.88, 1.905],
  "SoftwareVersions": "syngo_MR_E11",
  "SpacingBetweenSlices": 2.5,
  "StationName": "AWP66018",
  "TaskName": "moral",
  "TotalReadoutTime": 0.0481895,
  "TxRefAmp": 267.686,
  "dcmmeta_affine": [
    [-2.497445821762085, -0.07892165333032608, -0.08084525913000107, 105.10556030273438],
    [-0.06310932338237762, 2.458308458328247, -0.4502634108066559, -72.90191650390625],
    [-0.0937112420797348, 0.44776254892349243, 2.457789182662964, -84.57830810546875],
    [0.0, 0.0, 0.0, 1.0]
],
  "dcmmeta_reorient_transform": [
    [0.0, -1.0, 0.0, 79.0],
    [1.0, 0.0, 0.0, 0.0],
    [0.0, 0.0, 1.0, 0.0],
    [0.0, 0.0, 0.0, 1.0]
],
  "dcmmeta_shape": [80, 80, 54, 194],
  "dcmmeta_slice_dim": 2,
  "dcmmeta_version": 0.6,
  "global": {
    "const": {
      "AcquisitionMatrix": [80, 0, 0, 80],
      "AngioFlag": "N",
      "BitsAllocated": 16,
      "BitsStored": 12,
      "BodyPartExamined": "BRAIN",
      "Columns": 640,
      "EchoNumbers": 1,
      "EchoTime": 30.0,
      "EchoTrainLength": 60,
      "FlipAngle": 71.0,
      "HighBit": 11,
      "ImageOrientationPatient": [0.99897831139499, 0.02524372795073, -0.0374844976165, -0.0315686621271, 0.98332335067388, -0.17910501833],
      "ImagePositionPatient": [-776.05750662098, -827.3013996398, 102.40759145595],
      "ImageType": [
        "ORIGINAL",
        "PRIMARY",
        "M",
        "ND",
        "NORM",
        "MOSAIC"
],
      "ImagedNucleus": "1H",
      "ImagingFrequency": 123.164137,
      "InPlanePhaseEncodingDirection": "COL",
      "MRAcquisitionType": "2D",
      "MagneticFieldStrength": 3.0,
      "Manufacturer": "SIEMENS",
      "ManufacturerModelName": "Prisma",
      "Modality": "MR",
      "NumberOfAverages": 1.0,
      "NumberOfPhaseEncodingSteps": 60,
      "PercentPhaseFieldOfView": 100.0,
      "PercentSampling": 100.0,
      "PerformedProcedureStepStartTime": "160516.388000",
      "PhotometricInterpretation": "MONOCHROME2",
      "PixelBandwidth": 1895.0,
      "PixelRepresentation": 0,
      "PixelSpacing": [2.5, 2.5],
      "ProtocolName": "func_ses-01_run-01_task-moral",
      "RepetitionTime": 2000.0,
      "Rows": 640,
      "SAR": 0.06001789304587,
      "SamplesPerPixel": 1,
      "ScanOptions": [
        "PFP",
        "FS"
],
      "ScanningSequence": "EP",
      "SequenceName": "*epfid2d1_80",
      "SequenceVariant": "SK",
      "SeriesDescription": "func_ses-01_run-01_task-moral",
      "SeriesNumber": 8,
      "SeriesTime": "163545.700000",
      "SliceLocation": -73.419145960641,
      "SliceThickness": 2.5,
      "SmallestImagePixelValue": 0,
      "SoftwareVersions": "syngo MR E11",
      "SpacingBetweenSlices": 2.5000000495926,
      "SpecificCharacterSet": "ISO_IR 100",
      "StudyID": "1",
      "StudyTime": "160516.324000",
      "TransmitCoilName": "Body",
      "VariableFlipAngleFlag": "N",
      "WindowCenterWidthExplanation": "Algo1",
      "dBdt": 0.0},
    "slices": {}
  },
  "time": {
    "samples": {
      "AcquisitionNumber": [1, 2, 3, 4, 5, 6, 7, 8, 9, 10, 11, 12, 13, 14, 15, 16, 17, 18, 19, 20, 21, 22, 23, 24, 25, 26, 27, 28, 29, 30, 31, 32, 33, 34, 35, 36, 37, 38, 39, 40, 41, 42, 43, 44, 45, 46, 47, 48, 49, 50, 51, 52, 53, 54, 55, 56, 57, 58, 59, 60, 61, 62, 63, 64, 65, 66, 67, 68, 69, 70, 71, 72, 73, 74, 75, 76, 77, 78, 79, 80, 81, 82, 83, 84, 85, 86, 87, 88, 89, 90, 91, 92, 93, 94, 95, 96, 97, 98, 99, 100, 101, 102, 103, 104, 105, 106, 107, 108, 109, 110, 111, 112, 113, 114, 115, 116, 117, 118, 119, 120, 121, 122, 123, 124, 125, 126, 127, 128, 129, 130, 131, 132, 133, 134, 135, 136, 137, 138, 139, 140, 141, 142, 143, 144, 145, 146, 147, 148, 149, 150, 151, 152, 153, 154, 155, 156, 157, 158, 159, 160, 161, 162, 163, 164, 165, 166, 167, 168, 169, 170, 171, 172, 173, 174, 175, 176, 177, 178, 179, 180, 181, 182, 183, 184, 185, 186, 187, 188, 189, 190, 191, 192, 193, 194],
      "AcquisitionTime": ["192724.072500", "192726.072500", "192728.072500", "192730.072500", "192732.072500", "192734.072500", "192736.072500", "192738.072500", "192740.072500", "192742.072500", "192744.072500", "192746.072500", "192748.072500", "192750.072500", "192752.072500", "192754.072500", "192756.072500", "192758.072500", "192800.072500", "192802.072500", "192804.072500", "192806.072500", "192808.072500", "192810.072500", "192812.072500", "192814.072500", "192816.072500", "192818.072500", "192820.072500", "192822.072500", "192824.072500", "192826.072500", "192828.072500", "192830.072500", "192832.072500", "192834.072500", "192836.072500", "192838.072500", "192840.072500", "192842.072500", "192844.072500", "192846.072500", "192848.072500", "192850.072500", "192852.072500", "192854.072500", "192856.072500", "192858.072500", "192900.072500", "192902.072500", "192904.072500", "192906.072500", "192908.072500", "192910.072500", "192912.072500", "192914.072500", "192916.072500", "192918.072500", "192920.072500", "192922.072500", "192924.072500", "192926.072500", "192928.072500", "192930.072500", "192932.072500", "192934.072500", "192936.072500", "192938.072500", "192940.072500", "192942.072500", "192944.072500", "192946.072500", "192948.072500", "192950.072500", "192952.072500", "192954.072500", "192956.072500", "192958.072500", "193000.072500", "193002.072500", "193004.072500", "193006.072500", "193008.072500", "193010.072500", "193012.072500", "193014.072500", "193016.072500", "193018.072500", "193020.072500", "193022.072500", "193024.072500", "193026.072500", "193028.072500", "193030.072500", "193032.072500", "193034.072500", "193036.072500", "193038.072500", "193040.072500", "193042.072500", "193044.072500", "193046.072500", "193048.072500", "193050.072500", "193052.072500", "193054.072500", "193056.072500", "193058.072500", "193100.072500", "193102.072500", "193104.072500", "193106.072500", "193108.072500", "193110.072500", "193112.072500", "193114.072500", "193116.072500", "193118.072500", "193120.072500", "193122.072500", "193124.072500", "193126.072500", "193128.072500", "193130.072500", "193132.072500", "193134.072500", "193136.072500", "193138.072500", "193140.072500", "193142.072500", "193144.072500", "193146.072500", "193148.072500", "193150.072500", "193152.072500", "193154.072500", "193156.072500", "193158.072500", "193200.072500", "193202.072500", "193204.072500", "193206.072500", "193208.072500", "193210.072500", "193212.072500", "193214.072500", "193216.072500", "193218.072500", "193220.072500", "193222.072500", "193224.072500", "193226.072500", "193228.072500", "193230.072500", "193232.072500", "193234.072500", "193236.072500", "193238.072500", "193240.072500", "193242.072500", "193244.072500", "193246.072500", "193248.072500", "193250.072500", "193252.072500", "193254.072500", "193256.072500", "193258.072500", "193300.072500", "193302.072500", "193304.072500", "193306.072500", "193308.072500", "193310.072500", "193312.072500", "193314.072500", "193316.072500", "193318.072500", "193320.072500", "193322.072500", "193324.072500", "193326.072500", "193328.072500", "193330.072500", "193332.072500", "193334.072500", "193336.072500", "193338.072500", "193340.072500", "193342.072500", "193344.072500", "193346.072500", "193348.072500", "193350.072500"],
      "ContentTime": ["163545.704000", "163545.708000", "163545.717000", "163545.720000", "163545.723000", "163545.726000", "163545.729000", "163545.734000", "163545.737000", "163545.745000", "163545.748000", "163545.750000", "163545.753000", "163545.757000", "163545.759000", "163545.762000", "163545.765000", "163545.768000", "163545.771000", "163545.774000", "163545.777000", "163545.780000", "163545.783000", "163545.786000", "163545.790000", "163545.793000", "163545.796000", "163545.798000", "163625.700000", "163625.703000", "163625.706000", "163625.709000", "163625.712000", "163625.715000", "163625.718000", "163625.721000", "163625.724000", "163625.727000", "163625.730000", "163625.734000", "163625.737000", "163625.740000", "163625.743000", "163625.746000", "163625.749000", "163625.752000", "163625.755000", "163625.758000", "163705.700000", "163705.703000", "163705.706000", "163705.709000", "163705.712000", "163705.715000", "163705.718000", "163705.720000", "163705.724000", "163705.727000", "163705.730000", "163705.735000", "163705.738000", "163705.741000", "163705.744000", "163705.746000", "163705.749000", "163705.752000", "163705.755000", "163705.758000", "163745.699000", "163745.702000", "163745.705000", "163745.708000", "163745.711000", "163745.714000", "163745.717000", "163745.719000", "163745.722000", "163745.725000", "163745.728000", "163745.732000", "163745.750000", "163745.753000", "163745.756000", "163745.759000", "163745.762000", "163745.774000", "163745.777000", "163745.779000", "163825.700000", "163825.703000", "163825.706000", "163825.709000", "163825.712000", "163825.715000", "163825.718000", "163825.721000", "163825.724000", "163825.727000", "163825.731000", "163825.734000", "163825.738000", "163825.740000", "163825.743000", "163825.746000", "163825.749000", "163825.752000", "163825.755000", "163825.758000", "163905.700000", "163905.703000", "163905.706000", "163905.709000", "163905.712000", "163905.715000", "163905.718000", "163905.721000", "163905.724000", "163905.727000", "163905.731000", "163905.734000", "163905.737000", "163905.740000", "163905.743000", "163905.746000", "163905.749000", "163905.752000", "163905.755000", "163905.758000", "163945.700000", "163945.703000", "163945.706000", "163945.709000", "163945.712000", "163945.715000", "163945.718000", "163945.721000", "163945.724000", "163945.726000", "163945.731000", "163945.734000", "163945.736000", "163945.740000", "163945.742000", "163945.745000", "163945.748000", "163945.751000", "163945.754000", "163945.757000", "164025.699000", "164025.702000", "164025.705000", "164025.708000", "164025.711000", "164025.714000", "164025.717000", "164025.720000", "164025.723000", "164025.726000", "164025.730000", "164025.733000", "164025.736000", "164025.739000", "164025.742000", "164025.745000", "164025.748000", "164025.751000", "164025.754000", "164025.757000", "164105.700000", "164105.703000", "164105.706000", "164105.709000", "164105.712000", "164105.715000", "164105.718000", "164105.721000", "164105.724000", "164105.728000", "164105.731000", "164105.744000", "164105.748000", "164105.750000", "164105.753000", "164105.756000", "164105.759000", "164105.762000", "164105.765000", "164105.768000", "164117.635000", "164117.638000", "164117.641000", "164117.644000", "164117.647000", "164117.650000"],
      "InstanceCreationTime": ["163545.704000", "163545.708000", "163545.717000", "163545.720000", "163545.723000", "163545.726000", "163545.729000", "163545.734000", "163545.737000", "163545.745000", "163545.748000", "163545.750000", "163545.753000", "163545.757000", "163545.759000", "163545.762000", "163545.765000", "163545.768000", "163545.771000", "163545.774000", "163545.777000", "163545.780000", "163545.783000", "163545.786000", "163545.790000", "163545.793000", "163545.796000", "163545.798000", "163625.700000", "163625.703000", "163625.706000", "163625.709000", "163625.712000", "163625.715000", "163625.718000", "163625.721000", "163625.724000", "163625.727000", "163625.730000", "163625.734000", "163625.737000", "163625.740000", "163625.743000", "163625.746000", "163625.749000", "163625.752000", "163625.755000", "163625.758000", "163705.700000", "163705.703000", "163705.706000", "163705.709000", "163705.712000", "163705.715000", "163705.718000", "163705.720000", "163705.724000", "163705.727000", "163705.730000", "163705.735000", "163705.738000", "163705.741000", "163705.744000", "163705.746000", "163705.749000", "163705.752000", "163705.755000", "163705.758000", "163745.699000", "163745.702000", "163745.705000", "163745.708000", "163745.711000", "163745.714000", "163745.717000", "163745.719000", "163745.722000", "163745.725000", "163745.728000", "163745.732000", "163745.750000", "163745.753000", "163745.756000", "163745.759000", "163745.762000", "163745.774000", "163745.777000", "163745.779000", "163825.700000", "163825.703000", "163825.706000", "163825.709000", "163825.712000", "163825.715000", "163825.718000", "163825.721000", "163825.724000", "163825.727000", "163825.731000", "163825.734000", "163825.738000", "163825.740000", "163825.743000", "163825.746000", "163825.749000", "163825.752000", "163825.755000", "163825.758000", "163905.700000", "163905.703000", "163905.706000", "163905.709000", "163905.712000", "163905.715000", "163905.718000", "163905.721000", "163905.724000", "163905.727000", "163905.731000", "163905.734000", "163905.737000", "163905.740000", "163905.743000", "163905.746000", "163905.749000", "163905.752000", "163905.755000", "163905.758000", "163945.700000", "163945.703000", "163945.706000", "163945.709000", "163945.712000", "163945.715000", "163945.718000", "163945.721000", "163945.724000", "163945.726000", "163945.731000", "163945.734000", "163945.736000", "163945.740000", "163945.742000", "163945.745000", "163945.748000", "163945.751000", "163945.754000", "163945.757000", "164025.699000", "164025.702000", "164025.705000", "164025.708000", "164025.711000", "164025.714000", "164025.717000", "164025.720000", "164025.723000", "164025.726000", "164025.730000", "164025.733000", "164025.736000", "164025.739000", "164025.742000", "164025.745000", "164025.748000", "164025.751000", "164025.754000", "164025.757000", "164105.700000", "164105.703000", "164105.706000", "164105.709000", "164105.712000", "164105.715000", "164105.718000", "164105.721000", "164105.724000", "164105.728000", "164105.731000", "164105.744000", "164105.748000", "164105.750000", "164105.753000", "164105.756000", "164105.759000", "164105.762000", "164105.765000", "164105.768000", "164117.635000", "164117.638000", "164117.641000", "164117.644000", "164117.647000", "164117.650000"],
      "InstanceNumber": [1, 2, 3, 4, 5, 6, 7, 8, 9, 10, 11, 12, 13, 14, 15, 16, 17, 18, 19, 20, 21, 22, 23, 24, 25, 26, 27, 28, 29, 30, 31, 32, 33, 34, 35, 36, 37, 38, 39, 40, 41, 42, 43, 44, 45, 46, 47, 48, 49, 50, 51, 52, 53, 54, 55, 56, 57, 58, 59, 60, 61, 62, 63, 64, 65, 66, 67, 68, 69, 70, 71, 72, 73, 74, 75, 76, 77, 78, 79, 80, 81, 82, 83, 84, 85, 86, 87, 88, 89, 90, 91, 92, 93, 94, 95, 96, 97, 98, 99, 100, 101, 102, 103, 104, 105, 106, 107, 108, 109, 110, 111, 112, 113, 114, 115, 116, 117, 118, 119, 120, 121, 122, 123, 124, 125, 126, 127, 128, 129, 130, 131, 132, 133, 134, 135, 136, 137, 138, 139, 140, 141, 142, 143, 144, 145, 146, 147, 148, 149, 150, 151, 152, 153, 154, 155, 156, 157, 158, 159, 160, 161, 162, 163, 164, 165, 166, 167, 168, 169, 170, 171, 172, 173, 174, 175, 176, 177, 178, 179, 180, 181, 182, 183, 184, 185, 186, 187, 188, 189, 190, 191, 192, 193, 194],
      "LargestImagePixelValue": [2604, 2292, 2201, 1804, 2044, 2018, 2292, 1790, 1963, 2052, 2062, 1825, 2361, 2068, 2217, 1885, 2220, 1791, 2046, 1903, 2258, 2444, 2006, 2054, 2348, 2008, 2295, 2277, 1778, 2108, 1850, 2406, 1863, 2125, 1937, 2350, 2236, 1755, 2256, 1853, 2079, 1810, 2455, 2117, 2033, 1824, 1770, 2416, 2057, 1966, 1778, 1823, 2359, 1782, 2198, 2095, 2299, 2191, 2267, 2389, 1817, 2234, 2074, 2181, 1930, 1835, 1849, 2176, 1850, 2240, 2259, 1845, 2199, 2151, 2047, 1979, 1872, 1845, 2272, 2296, 1881, 1849, 2331, 1897, 2011, 1926, 2156, 1920, 1954, 2336, 1948, 1879, 1840, 1986, 2126, 2073, 1944, 1830, 2181, 2165, 1962, 1856, 2306, 2056, 1823, 2129, 1845, 1848, 2288, 1935, 1885, 1844, 2304, 1921, 1858, 2293, 1930, 2104, 2141, 1886, 1910, 2157, 2069, 1861, 2179, 2119, 1868, 1821, 2251, 2070, 1856, 2083, 2160, 1858, 1993, 2004, 2060, 1852, 2325, 1990, 1843, 2097, 1996, 1849, 1990, 2437, 1894, 1875, 2139, 2154, 1942, 1857, 2170, 2034, 2122, 1826, 2200, 1831, 1936, 2434, 1986, 1847, 2110, 1847, 2381, 2043, 1882, 1848, 2314, 1957, 2091, 2038, 2265, 1898, 1853, 2192, 2103, 2111, 1847, 1835, 2079, 1878, 1819, 1837, 2325, 2258, 1854, 1911, 1922, 1922, 2250, 1985, 1837, 2297],
      "WindowCenter": [717.0, 715.0, 715.0, 714.0, 714.0, 714.0, 714.0, 713.0, 713.0, 715.0, 714.0, 713.0, 714.0, 714.0, 713.0, 713.0, 713.0, 712.0, 714.0, 713.0, 715.0, 714.0, 711.0, 715.0, 714.0, 712.0, 713.0, 712.0, 711.0, 711.0, 711.0, 713.0, 712.0, 713.0, 712.0, 714.0, 712.0, 711.0, 712.0, 712.0, 712.0, 711.0, 714.0, 712.0, 711.0, 711.0, 712.0, 714.0, 713.0, 712.0, 711.0, 712.0, 714.0, 714.0, 715.0, 714.0, 714.0, 712.0, 712.0, 713.0, 711.0, 712.0, 711.0, 712.0, 711.0, 710.0, 711.0, 712.0, 710.0, 712.0, 712.0, 710.0, 712.0, 712.0, 711.0, 711.0, 710.0, 710.0, 712.0, 713.0, 711.0, 711.0, 712.0, 711.0, 712.0, 711.0, 713.0, 711.0, 712.0, 712.0, 711.0, 710.0, 710.0, 710.0, 711.0, 711.0, 710.0, 711.0, 711.0, 712.0, 711.0, 711.0, 712.0, 711.0, 712.0, 713.0, 711.0, 711.0, 712.0, 712.0, 711.0, 711.0, 713.0, 711.0, 712.0, 713.0, 712.0, 712.0, 712.0, 711.0, 711.0, 712.0, 711.0, 710.0, 711.0, 711.0, 709.0, 709.0, 712.0, 711.0, 710.0, 711.0, 710.0, 711.0, 710.0, 712.0, 712.0, 710.0, 713.0, 711.0, 710.0, 711.0, 712.0, 710.0, 713.0, 714.0, 711.0, 710.0, 712.0, 712.0, 709.0, 711.0, 712.0, 713.0, 712.0, 710.0, 712.0, 711.0, 712.0, 714.0, 711.0, 710.0, 710.0, 710.0, 712.0, 712.0, 711.0, 712.0, 714.0, 712.0, 712.0, 712.0, 712.0, 710.0, 711.0, 712.0, 713.0, 711.0, 710.0, 710.0, 712.0, 711.0, 711.0, 710.0, 712.0, 712.0, 710.0, 714.0, 713.0, 710.0, 713.0, 711.0, 712.0, 714.0],
      "WindowWidth": [1506.0, 1501.0, 1500.0, 1497.0, 1497.0, 1499.0, 1498.0, 1495.0, 1497.0, 1501.0, 1497.0, 1496.0, 1498.0, 1497.0, 1497.0, 1495.0, 1495.0, 1493.0, 1497.0, 1496.0, 1500.0, 1497.0, 1491.0, 1500.0, 1499.0, 1494.0, 1496.0, 1494.0, 1490.0, 1491.0, 1492.0, 1496.0, 1493.0, 1495.0, 1492.0, 1497.0, 1493.0, 1490.0, 1494.0, 1493.0, 1494.0, 1491.0, 1497.0, 1494.0, 1492.0, 1491.0, 1493.0, 1498.0, 1495.0, 1493.0, 1490.0, 1493.0, 1497.0, 1499.0, 1500.0, 1498.0, 1497.0, 1494.0, 1494.0, 1495.0, 1491.0, 1494.0, 1491.0, 1493.0, 1490.0, 1489.0, 1491.0, 1492.0, 1489.0, 1493.0, 1494.0, 1490.0, 1494.0, 1493.0, 1491.0, 1490.0, 1488.0, 1488.0, 1493.0, 1495.0, 1490.0, 1491.0, 1493.0, 1492.0, 1493.0, 1491.0, 1494.0, 1490.0, 1492.0, 1494.0, 1490.0, 1489.0, 1489.0, 1489.0, 1491.0, 1492.0, 1489.0, 1490.0, 1491.0, 1493.0, 1491.0, 1491.0, 1493.0, 1491.0, 1493.0, 1496.0, 1491.0, 1490.0, 1494.0, 1493.0, 1492.0, 1491.0, 1496.0, 1491.0, 1494.0, 1496.0, 1493.0, 1493.0, 1493.0, 1490.0, 1490.0, 1493.0, 1491.0, 1490.0, 1491.0, 1490.0, 1487.0, 1487.0, 1494.0, 1491.0, 1489.0, 1492.0, 1490.0, 1491.0, 1490.0, 1493.0, 1492.0, 1490.0, 1495.0, 1490.0, 1490.0, 1490.0, 1492.0, 1487.0, 1495.0, 1497.0, 1490.0, 1489.0, 1492.0, 1492.0, 1488.0, 1491.0, 1493.0, 1495.0, 1493.0, 1490.0, 1492.0, 1490.0, 1493.0, 1498.0, 1491.0, 1489.0, 1489.0, 1488.0, 1493.0, 1492.0, 1490.0, 1492.0, 1496.0, 1494.0, 1493.0, 1492.0, 1493.0, 1489.0, 1491.0, 1494.0, 1494.0, 1492.0, 1489.0, 1488.0, 1492.0, 1491.0, 1491.0, 1490.0, 1493.0, 1494.0, 1490.0, 1497.0, 1495.0, 1490.0, 1494.0, 1491.0, 1492.0, 1498.0]
    },
    "slices": {}
  }
}