{
  "AcquisitionMatrixPE": 80,
  "AcquisitionNumber": 1,
  "AcquisitionTime": "19:11:0.907500",
  "BandwidthPerPixelPhaseEncode": 20.492,
  "BaseResolution": 80,
  "BodyPartExamined": "BRAIN",
  "ConsistencyInfo": "N4_VE11C_LATEST_20160120",
  "ConversionSoftware": "dcm2niix",
  "ConversionSoftwareVersion": "v1.0.20190410  GCC6.3.0",
  "DerivedVendorReportedEchoSpacing": 0.000609994,
  "DeviceSerialNumber": "66018",
  "DwellTime": 3.3e-06,
  "EchoTime": 0.03,
  "EchoTrainLength": 60,
  "EffectiveEchoSpacing": 0.000609994,
  "FlipAngle": 71,
  "ImageOrientationPatientDICOM": [0.998978, 0.0252437, -0.0374845, -0.0315687, 0.983323, -0.179105],
  "ImageType": [
    "ORIGINAL",
    "PRIMARY",
    "M",
    "ND",
    "NORM",
    "MOSAIC"
],
  "ImagingFrequency": 123.164,
  "InPlanePhaseEncodingDirectionDICOM": "COL",
  "InstitutionAddress": "Stadium_1952_Princeton_NJ_US_08544",
  "InstitutionName": "Princeton_University",
  "InstitutionalDepartmentName": "NeuroScience",
  "MRAcquisitionType": "2D",
  "MagneticFieldStrength": 3,
  "Manufacturer": "Siemens",
  "ManufacturersModelName": "Prisma",
  "Modality": "MR",
  "MultibandAccelerationFactor": 2,
  "PartialFourier": 0.75,
  "PatientPosition": "HFS",
  "PercentPhaseFOV": 100,
  "PhaseEncodingDirection": "j-",
  "PhaseEncodingSteps": 60,
  "PhaseResolution": 1,
  "PixelBandwidth": 1895,
  "ProcedureStepDescription": "000005_NEU502_NEU502B-2026",
  "ProtocolName": "func_ses-01_run-01_task-lang-local",
  "PulseSequenceDetails": "%SiemensSeq%_ep2d_bold",
  "ReceiveCoilActiveElements": "HC1-7",
  "ReceiveCoilName": "HeadNeck_64",
  "ReconMatrixPE": 80,
  "RefLinesPE": 24,
  "RepetitionTime": 2,
  "SAR": 0.0600179,
  "ScanOptions": "PFP_FS",
  "ScanningSequence": "EP",
  "SequenceName": "_epfid2d1_80",
  "SequenceVariant": "SK",
  "SeriesDescription": "func_ses-01_run-01_task-lang-local",
  "SeriesNumber": 6,
  "ShimSetting": [740, 520, 2074, 588, -21, 58, 87, 66],
  "SliceThickness": 2.5,
  "SliceTiming": [0.955, 0, 1.0275, 0.075, 1.1, 0.1475, 1.175, 0.22, 1.2475, 0.295, 1.32, 0.3675, 1.395, 0.44, 1.4675, 0.515, 1.54, 0.5875, 1.615, 0.66, 1.6875, 0.735, 1.76, 0.8075, 1.835, 0.88, 1.9075, 0.955, 0, 1.0275, 0.075, 1.1, 0.1475, 1.175, 0.22, 1.2475, 0.295, 1.32, 0.3675, 1.395, 0.44, 1.4675, 0.515, 1.54, 0.5875, 1.615, 0.66, 1.6875, 0.735, 1.76, 0.8075, 1.835, 0.88, 1.9075],
  "SoftwareVersions": "syngo_MR_E11",
  "SpacingBetweenSlices": 2.5,
  "StationName": "AWP66018",
  "TaskName": "langXlocal",
  "TotalReadoutTime": 0.0481895,
  "TxRefAmp": 267.686,
  "dcmmeta_affine": [
    [-2.497445821762085, -0.07892165333032608, -0.08084525913000107, 105.10556030273438],
    [-0.06310932338237762, 2.458308458328247, -0.4502634108066559, -72.90191650390625],
    [-0.0937112420797348, 0.44776254892349243, 2.457789182662964, -84.57830810546875],
    [0.0, 0.0, 0.0, 1.0]
],
  "dcmmeta_reorient_transform": [
    [0.0, -1.0, 0.0, 79.0],
    [1.0, 0.0, 0.0, 0.0],
    [0.0, 0.0, 1.0, 0.0],
    [0.0, 0.0, 0.0, 1.0]
],
  "dcmmeta_shape": [80, 80, 54, 181],
  "dcmmeta_slice_dim": 2,
  "dcmmeta_version": 0.6,
  "global": {
    "const": {
      "AcquisitionMatrix": [80, 0, 0, 80],
      "AngioFlag": "N",
      "BitsAllocated": 16,
      "BitsStored": 12,
      "BodyPartExamined": "BRAIN",
      "Columns": 640,
      "EchoNumbers": 1,
      "EchoTime": 30.0,
      "EchoTrainLength": 60,
      "FlipAngle": 71.0,
      "HighBit": 11,
      "ImageOrientationPatient": [0.99897831139499, 0.02524372795073, -0.0374844976165, -0.0315686621271, 0.98332335067388, -0.17910501833],
      "ImagePositionPatient": [-776.05750662098, -827.3013996398, 102.40759145595],
      "ImageType": [
        "ORIGINAL",
        "PRIMARY",
        "M",
        "ND",
        "NORM",
        "MOSAIC"
],
      "ImagedNucleus": "1H",
      "ImagingFrequency": 123.164139,
      "InPlanePhaseEncodingDirection": "COL",
      "MRAcquisitionType": "2D",
      "MagneticFieldStrength": 3.0,
      "Manufacturer": "SIEMENS",
      "ManufacturerModelName": "Prisma",
      "Modality": "MR",
      "NumberOfAverages": 1.0,
      "NumberOfPhaseEncodingSteps": 60,
      "PercentPhaseFieldOfView": 100.0,
      "PercentSampling": 100.0,
      "PerformedProcedureStepStartTime": "160516.388000",
      "PhotometricInterpretation": "MONOCHROME2",
      "PixelBandwidth": 1895.0,
      "PixelRepresentation": 0,
      "PixelSpacing": [2.5, 2.5],
      "ProtocolName": "func_ses-01_run-01_task-lang-local",
      "RepetitionTime": 2000.0,
      "Rows": 640,
      "SAR": 0.06001789304587,
      "SamplesPerPixel": 1,
      "ScanOptions": [
        "PFP",
        "FS"
],
      "ScanningSequence": "EP",
      "SequenceName": "*epfid2d1_80",
      "SequenceVariant": "SK",
      "SeriesDescription": "func_ses-01_run-01_task-lang-local",
      "SeriesNumber": 6,
      "SeriesTime": "161907.180000",
      "SliceLocation": -73.419145960641,
      "SliceThickness": 2.5,
      "SmallestImagePixelValue": 0,
      "SoftwareVersions": "syngo MR E11",
      "SpacingBetweenSlices": 2.5000000495926,
      "SpecificCharacterSet": "ISO_IR 100",
      "StudyID": "1",
      "StudyTime": "160516.324000",
      "TransmitCoilName": "Body",
      "VariableFlipAngleFlag": "N",
      "WindowCenterWidthExplanation": "Algo1",
      "dBdt": 0.0},
    "slices": {}
  },
  "time": {
    "samples": {
      "AcquisitionNumber": [1, 2, 3, 4, 5, 6, 7, 8, 9, 10, 11, 12, 13, 14, 15, 16, 17, 18, 19, 20, 21, 22, 23, 24, 25, 26, 27, 28, 29, 30, 31, 32, 33, 34, 35, 36, 37, 38, 39, 40, 41, 42, 43, 44, 45, 46, 47, 48, 49, 50, 51, 52, 53, 54, 55, 56, 57, 58, 59, 60, 61, 62, 63, 64, 65, 66, 67, 68, 69, 70, 71, 72, 73, 74, 75, 76, 77, 78, 79, 80, 81, 82, 83, 84, 85, 86, 87, 88, 89, 90, 91, 92, 93, 94, 95, 96, 97, 98, 99, 100, 101, 102, 103, 104, 105, 106, 107, 108, 109, 110, 111, 112, 113, 114, 115, 116, 117, 118, 119, 120, 121, 122, 123, 124, 125, 126, 127, 128, 129, 130, 131, 132, 133, 134, 135, 136, 137, 138, 139, 140, 141, 142, 143, 144, 145, 146, 147, 148, 149, 150, 151, 152, 153, 154, 155, 156, 157, 158, 159, 160, 161, 162, 163, 164, 165, 166, 167, 168, 169, 170, 171, 172, 173, 174, 175, 176, 177, 178, 179, 180, 181],
      "AcquisitionTime": ["191100.907500", "191102.907500", "191104.907500", "191106.907500", "191108.907500", "191110.907500", "191112.907500", "191114.907500", "191116.907500", "191118.907500", "191120.907500", "191122.907500", "191124.907500", "191126.907500", "191128.907500", "191130.907500", "191132.907500", "191134.907500", "191136.907500", "191138.907500", "191140.907500", "191142.907500", "191144.907500", "191146.907500", "191148.907500", "191150.907500", "191152.907500", "191154.907500", "191156.907500", "191158.907500", "191200.907500", "191202.907500", "191204.907500", "191206.907500", "191208.907500", "191210.907500", "191212.907500", "191214.907500", "191216.907500", "191218.907500", "191220.907500", "191222.907500", "191224.907500", "191226.907500", "191228.907500", "191230.907500", "191232.907500", "191234.907500", "191236.907500", "191238.907500", "191240.907500", "191242.907500", "191244.907500", "191246.907500", "191248.907500", "191250.907500", "191252.907500", "191254.907500", "191256.907500", "191258.907500", "191300.907500", "191302.907500", "191304.907500", "191306.907500", "191308.907500", "191310.907500", "191312.907500", "191314.907500", "191316.907500", "191318.907500", "191320.907500", "191322.907500", "191324.907500", "191326.907500", "191328.907500", "191330.907500", "191332.907500", "191334.907500", "191336.907500", "191338.907500", "191340.907500", "191342.907500", "191344.907500", "191346.907500", "191348.907500", "191350.907500", "191352.907500", "191354.907500", "191356.907500", "191358.907500", "191400.907500", "191402.907500", "191404.907500", "191406.907500", "191408.907500", "191410.907500", "191412.907500", "191414.907500", "191416.907500", "191418.907500", "191420.907500", "191422.907500", "191424.907500", "191426.907500", "191428.907500", "191430.907500", "191432.907500", "191434.907500", "191436.907500", "191438.907500", "191440.907500", "191442.907500", "191444.907500", "191446.907500", "191448.907500", "191450.907500", "191452.907500", "191454.907500", "191456.907500", "191458.907500", "191500.907500", "191502.907500", "191504.907500", "191506.907500", "191508.907500", "191510.907500", "191512.907500", "191514.907500", "191516.907500", "191518.907500", "191520.907500", "191522.907500", "191524.907500", "191526.907500", "191528.907500", "191530.907500", "191532.907500", "191534.907500", "191536.907500", "191538.907500", "191540.907500", "191542.907500", "191544.907500", "191546.907500", "191548.907500", "191550.907500", "191552.907500", "191554.907500", "191556.907500", "191558.907500", "191600.907500", "191602.907500", "191604.907500", "191606.907500", "191608.907500", "191610.907500", "191612.907500", "191614.907500", "191616.907500", "191618.907500", "191620.907500", "191622.907500", "191624.907500", "191626.907500", "191628.907500", "191630.907500", "191632.907500", "191634.907500", "191636.907500", "191638.907500", "191640.907500", "191642.907500", "191644.907500", "191646.907500", "191648.907500", "191650.907500", "191652.907500", "191654.907500", "191656.907500", "191658.907500", "191700.907500"],
      "ContentTime": ["161907.185000", "161907.189000", "161907.192000", "161907.196000", "161907.199000", "161907.202000", "161907.205000", "161907.214000", "161907.217000", "161907.220000", "161907.222000", "161907.226000", "161907.229000", "161907.231000", "161907.241000", "161907.244000", "161907.247000", "161907.250000", "161907.252000", "161907.256000", "161907.260000", "161947.180000", "161947.183000", "161947.186000", "161947.189000", "161947.192000", "161947.195000", "161947.198000", "161947.201000", "161947.204000", "161947.207000", "161947.210000", "161947.213000", "161947.216000", "161947.219000", "161947.221000", "161947.224000", "161947.227000", "161947.230000", "161947.233000", "161947.236000", "162027.180000", "162027.200000", "162027.203000", "162027.206000", "162027.209000", "162027.211000", "162027.214000", "162027.217000", "162027.220000", "162027.223000", "162027.226000", "162027.229000", "162027.232000", "162027.235000", "162027.238000", "162027.241000", "162027.244000", "162027.247000", "162027.250000", "162027.253000", "162107.179000", "162107.182000", "162107.185000", "162107.188000", "162107.191000", "162107.194000", "162107.197000", "162107.199000", "162107.202000", "162107.205000", "162107.208000", "162107.211000", "162107.214000", "162107.217000", "162107.220000", "162107.223000", "162107.226000", "162107.228000", "162107.231000", "162107.234000", "162147.179000", "162147.182000", "162147.185000", "162147.188000", "162147.191000", "162147.194000", "162147.197000", "162147.199000", "162147.202000", "162147.205000", "162147.208000", "162147.211000", "162147.214000", "162147.217000", "162147.220000", "162147.222000", "162147.225000", "162147.228000", "162147.231000", "162147.234000", "162227.180000", "162227.183000", "162227.186000", "162227.189000", "162227.192000", "162227.200000", "162227.203000", "162227.206000", "162227.209000", "162227.212000", "162227.215000", "162227.218000", "162227.221000", "162227.224000", "162227.227000", "162227.230000", "162227.233000", "162227.236000", "162227.238000", "162227.241000", "162307.180000", "162307.183000", "162307.186000", "162307.189000", "162307.192000", "162307.195000", "162307.198000", "162307.201000", "162307.204000", "162307.207000", "162307.210000", "162307.213000", "162307.216000", "162307.219000", "162307.222000", "162307.224000", "162307.227000", "162307.230000", "162307.233000", "162307.236000", "162347.179000", "162347.182000", "162347.185000", "162347.188000", "162347.191000", "162347.194000", "162347.197000", "162347.200000", "162347.203000", "162347.206000", "162347.209000", "162347.212000", "162347.215000", "162347.218000", "162347.221000", "162347.224000", "162347.226000", "162347.229000", "162347.232000", "162347.235000", "162427.180000", "162427.183000", "162427.186000", "162427.189000", "162427.192000", "162427.195000", "162427.198000", "162427.201000", "162427.204000", "162427.207000", "162427.210000", "162427.213000", "162427.216000", "162427.219000", "162427.222000", "162427.225000", "162427.228000", "162427.231000", "162427.234000", "162427.237000"],
      "InstanceCreationTime": ["161907.185000", "161907.189000", "161907.192000", "161907.196000", "161907.199000", "161907.202000", "161907.205000", "161907.214000", "161907.217000", "161907.220000", "161907.222000", "161907.226000", "161907.229000", "161907.231000", "161907.241000", "161907.244000", "161907.247000", "161907.250000", "161907.252000", "161907.256000", "161907.260000", "161947.180000", "161947.183000", "161947.186000", "161947.189000", "161947.192000", "161947.195000", "161947.198000", "161947.201000", "161947.204000", "161947.207000", "161947.210000", "161947.213000", "161947.216000", "161947.219000", "161947.221000", "161947.224000", "161947.227000", "161947.230000", "161947.233000", "161947.236000", "162027.180000", "162027.200000", "162027.203000", "162027.206000", "162027.209000", "162027.211000", "162027.214000", "162027.217000", "162027.220000", "162027.223000", "162027.226000", "162027.229000", "162027.232000", "162027.235000", "162027.238000", "162027.241000", "162027.244000", "162027.247000", "162027.250000", "162027.253000", "162107.179000", "162107.182000", "162107.185000", "162107.188000", "162107.191000", "162107.194000", "162107.197000", "162107.199000", "162107.202000", "162107.205000", "162107.208000", "162107.211000", "162107.214000", "162107.217000", "162107.220000", "162107.223000", "162107.226000", "162107.228000", "162107.231000", "162107.234000", "162147.179000", "162147.182000", "162147.185000", "162147.188000", "162147.191000", "162147.194000", "162147.197000", "162147.199000", "162147.202000", "162147.205000", "162147.208000", "162147.211000", "162147.214000", "162147.217000", "162147.220000", "162147.222000", "162147.225000", "162147.228000", "162147.231000", "162147.234000", "162227.180000", "162227.183000", "162227.186000", "162227.189000", "162227.192000", "162227.200000", "162227.203000", "162227.206000", "162227.209000", "162227.212000", "162227.215000", "162227.218000", "162227.221000", "162227.224000", "162227.227000", "162227.230000", "162227.233000", "162227.236000", "162227.238000", "162227.241000", "162307.180000", "162307.183000", "162307.186000", "162307.189000", "162307.192000", "162307.195000", "162307.198000", "162307.201000", "162307.204000", "162307.207000", "162307.210000", "162307.213000", "162307.216000", "162307.219000", "162307.222000", "162307.224000", "162307.227000", "162307.230000", "162307.233000", "162307.236000", "162347.179000", "162347.182000", "162347.185000", "162347.188000", "162347.191000", "162347.194000", "162347.197000", "162347.200000", "162347.203000", "162347.206000", "162347.209000", "162347.212000", "162347.215000", "162347.218000", "162347.221000", "162347.224000", "162347.226000", "162347.229000", "162347.232000", "162347.235000", "162427.180000", "162427.183000", "162427.186000", "162427.189000", "162427.192000", "162427.195000", "162427.198000", "162427.201000", "162427.204000", "162427.207000", "162427.210000", "162427.213000", "162427.216000", "162427.219000", "162427.222000", "162427.225000", "162427.228000", "162427.231000", "162427.234000", "162427.237000"],
      "InstanceNumber": [1, 2, 3, 4, 5, 6, 7, 8, 9, 10, 11, 12, 13, 14, 15, 16, 17, 18, 19, 20, 21, 22, 23, 24, 25, 26, 27, 28, 29, 30, 31, 32, 33, 34, 35, 36, 37, 38, 39, 40, 41, 42, 43, 44, 45, 46, 47, 48, 49, 50, 51, 52, 53, 54, 55, 56, 57, 58, 59, 60, 61, 62, 63, 64, 65, 66, 67, 68, 69, 70, 71, 72, 73, 74, 75, 76, 77, 78, 79, 80, 81, 82, 83, 84, 85, 86, 87, 88, 89, 90, 91, 92, 93, 94, 95, 96, 97, 98, 99, 100, 101, 102, 103, 104, 105, 106, 107, 108, 109, 110, 111, 112, 113, 114, 115, 116, 117, 118, 119, 120, 121, 122, 123, 124, 125, 126, 127, 128, 129, 130, 131, 132, 133, 134, 135, 136, 137, 138, 139, 140, 141, 142, 143, 144, 145, 146, 147, 148, 149, 150, 151, 152, 153, 154, 155, 156, 157, 158, 159, 160, 161, 162, 163, 164, 165, 166, 167, 168, 169, 170, 171, 172, 173, 174, 175, 176, 177, 178, 179, 180, 181],
      "LargestImagePixelValue": [2123, 2513, 1833, 2897, 1924, 2970, 2203, 2917, 1822, 2379, 1835, 2405, 2253, 2388, 2449, 2032, 2398, 2059, 2460, 2534, 2320, 3159, 2289, 2123, 1931, 2374, 3040, 2252, 2381, 2355, 2439, 1943, 2784, 2002, 2852, 2182, 2034, 2467, 1978, 2465, 1996, 2507, 2519, 2187, 2693, 1922, 2140, 2166, 2852, 2383, 3171, 1990, 2372, 2227, 2215, 2356, 1901, 2392, 2084, 3266, 2162, 2256, 2377, 2106, 2404, 2019, 2504, 1975, 2218, 2410, 2352, 3220, 2202, 2320, 2243, 2167, 2056, 2187, 2325, 2163, 2364, 2467, 2361, 2959, 2271, 2295, 1861, 1871, 2578, 1903, 2532, 2089, 2831, 2282, 2673, 2092, 2302, 1862, 1850, 2357, 2180, 2685, 2213, 2567, 2312, 2397, 2487, 2005, 2391, 2180, 2507, 2078, 2529, 2977, 2084, 2574, 2259, 2370, 1922, 2263, 3049, 2247, 2357, 2260, 1865, 2246, 2628, 2463, 2157, 2360, 1861, 2376, 1979, 1864, 2689, 1991, 2765, 2066, 2335, 2234, 1878, 1884, 2172, 2311, 2254, 2447, 2058, 2323, 2162, 2321, 2252, 2539, 2066, 2278, 2132, 2214, 2792, 2205, 2352, 1911, 2343, 1859, 2260, 1844, 2366, 2245, 2642, 2059, 2450, 1874, 2165, 2595, 1940, 2448, 2703, 2007, 2263, 1929, 2271, 2249, 2474],
      "WindowCenter": [715.0, 716.0, 714.0, 718.0, 717.0, 718.0, 715.0, 716.0, 713.0, 714.0, 713.0, 715.0, 715.0, 716.0, 714.0, 715.0, 715.0, 713.0, 716.0, 715.0, 715.0, 717.0, 714.0, 714.0, 713.0, 715.0, 717.0, 714.0, 715.0, 715.0, 717.0, 715.0, 717.0, 714.0, 716.0, 714.0, 714.0, 715.0, 713.0, 713.0, 713.0, 715.0, 715.0, 713.0, 713.0, 713.0, 715.0, 715.0, 718.0, 716.0, 716.0, 712.0, 713.0, 713.0, 713.0, 712.0, 713.0, 715.0, 715.0, 717.0, 714.0, 714.0, 713.0, 713.0, 713.0, 712.0, 714.0, 713.0, 714.0, 715.0, 714.0, 715.0, 713.0, 713.0, 713.0, 713.0, 713.0, 714.0, 714.0, 714.0, 713.0, 714.0, 714.0, 715.0, 714.0, 714.0, 713.0, 714.0, 714.0, 713.0, 716.0, 715.0, 716.0, 713.0, 713.0, 711.0, 713.0, 712.0, 712.0, 713.0, 713.0, 714.0, 713.0, 714.0, 712.0, 715.0, 713.0, 714.0, 714.0, 713.0, 714.0, 713.0, 716.0, 715.0, 713.0, 713.0, 713.0, 714.0, 715.0, 716.0, 716.0, 712.0, 713.0, 712.0, 713.0, 716.0, 717.0, 714.0, 713.0, 712.0, 711.0, 710.0, 712.0, 712.0, 714.0, 712.0, 714.0, 712.0, 714.0, 713.0, 712.0, 714.0, 713.0, 714.0, 714.0, 714.0, 713.0, 714.0, 713.0, 712.0, 714.0, 714.0, 713.0, 714.0, 714.0, 715.0, 715.0, 714.0, 713.0, 712.0, 713.0, 712.0, 713.0, 712.0, 715.0, 716.0, 714.0, 714.0, 714.0, 712.0, 712.0, 716.0, 713.0, 715.0, 713.0, 712.0, 712.0, 713.0, 713.0, 714.0, 714.0],
      "WindowWidth": [1503.0, 1503.0, 1499.0, 1508.0, 1506.0, 1508.0, 1502.0, 1503.0, 1496.0, 1500.0, 1497.0, 1502.0, 1501.0, 1503.0, 1501.0, 1501.0, 1501.0, 1497.0, 1503.0, 1502.0, 1501.0, 1506.0, 1499.0, 1499.0, 1497.0, 1501.0, 1506.0, 1500.0, 1501.0, 1502.0, 1506.0, 1502.0, 1505.0, 1499.0, 1503.0, 1500.0, 1500.0, 1501.0, 1497.0, 1499.0, 1497.0, 1502.0, 1500.0, 1497.0, 1498.0, 1496.0, 1500.0, 1502.0, 1508.0, 1503.0, 1504.0, 1495.0, 1497.0, 1497.0, 1497.0, 1496.0, 1496.0, 1500.0, 1501.0, 1506.0, 1498.0, 1498.0, 1496.0, 1496.0, 1496.0, 1495.0, 1498.0, 1495.0, 1499.0, 1500.0, 1499.0, 1501.0, 1497.0, 1496.0, 1496.0, 1495.0, 1497.0, 1498.0, 1499.0, 1498.0, 1497.0, 1499.0, 1498.0, 1501.0, 1499.0, 1499.0, 1497.0, 1499.0, 1501.0, 1497.0, 1503.0, 1500.0, 1503.0, 1496.0, 1496.0, 1492.0, 1495.0, 1494.0, 1494.0, 1497.0, 1497.0, 1499.0, 1497.0, 1500.0, 1496.0, 1500.0, 1499.0, 1498.0, 1499.0, 1497.0, 1499.0, 1496.0, 1502.0, 1501.0, 1496.0, 1497.0, 1497.0, 1498.0, 1502.0, 1504.0, 1504.0, 1497.0, 1497.0, 1495.0, 1495.0, 1504.0, 1506.0, 1499.0, 1497.0, 1494.0, 1493.0, 1490.0, 1494.0, 1495.0, 1498.0, 1494.0, 1499.0, 1495.0, 1498.0, 1496.0, 1494.0, 1497.0, 1497.0, 1499.0, 1499.0, 1498.0, 1496.0, 1498.0, 1497.0, 1496.0, 1498.0, 1497.0, 1496.0, 1498.0, 1497.0, 1500.0, 1503.0, 1498.0, 1497.0, 1494.0, 1497.0, 1494.0, 1496.0, 1494.0, 1501.0, 1504.0, 1501.0, 1497.0, 1499.0, 1494.0, 1495.0, 1503.0, 1497.0, 1501.0, 1498.0, 1493.0, 1494.0, 1495.0, 1497.0, 1499.0, 1498.0]
    },
    "slices": {}
  }
}