{
  "AcquisitionMatrixPE": 80,
  "AcquisitionNumber": 1,
  "AcquisitionTime": "17:21:9.867500",
  "BandwidthPerPixelPhaseEncode": 20.492,
  "BaseResolution": 80,
  "BodyPartExamined": "BRAIN",
  "ConsistencyInfo": "N4_VE11C_LATEST_20160120",
  "ConversionSoftware": "dcm2niix",
  "ConversionSoftwareVersion": "v1.0.20190410  GCC6.3.0",
  "DerivedVendorReportedEchoSpacing": 0.000609994,
  "DeviceSerialNumber": "66018",
  "DwellTime": 3.3e-06,
  "EchoTime": 0.03,
  "EchoTrainLength": 60,
  "EffectiveEchoSpacing": 0.000609994,
  "FlipAngle": 71,
  "ImageOrientationPatientDICOM": [0.998476, 0.0523387, -0.0175147, -0.0511048, 0.996594, 0.0647189],
  "ImageType": [
    "ORIGINAL",
    "PRIMARY",
    "M",
    "ND",
    "NORM",
    "MOSAIC"
],
  "ImagingFrequency": 123.164,
  "InPlanePhaseEncodingDirectionDICOM": "COL",
  "InstitutionAddress": "Stadium_1952_Princeton_NJ_US_08544",
  "InstitutionName": "Princeton_University",
  "InstitutionalDepartmentName": "NeuroScience",
  "MRAcquisitionType": "2D",
  "MagneticFieldStrength": 3,
  "Manufacturer": "Siemens",
  "ManufacturersModelName": "Prisma",
  "Modality": "MR",
  "MultibandAccelerationFactor": 2,
  "PartialFourier": 0.75,
  "PatientPosition": "HFS",
  "PercentPhaseFOV": 100,
  "PhaseEncodingDirection": "j-",
  "PhaseEncodingSteps": 60,
  "PhaseResolution": 1,
  "PixelBandwidth": 1895,
  "ProcedureStepDescription": "000005_NEU502_NEU502B-2026",
  "ProtocolName": "func_ses-01_run-01_task-lang-task",
  "PulseSequenceDetails": "%SiemensSeq%_ep2d_bold",
  "ReceiveCoilActiveElements": "HC1-7",
  "ReceiveCoilName": "HeadNeck_64",
  "ReconMatrixPE": 80,
  "RefLinesPE": 24,
  "RepetitionTime": 2,
  "SAR": 0.0383344,
  "ScanOptions": "PFP_FS",
  "ScanningSequence": "EP",
  "SequenceName": "_epfid2d1_80",
  "SequenceVariant": "SK",
  "SeriesDescription": "func_ses-01_run-01_task-lang-task",
  "SeriesNumber": 7,
  "ShimSetting": [750, 470, 2130, 533, 42, 75, 115, 99],
  "SliceThickness": 2.5,
  "SliceTiming": [0.9525, 0, 1.025, 0.0725, 1.1, 0.145, 1.1725, 0.22, 1.245, 0.2925, 1.32, 0.365, 1.3925, 0.44, 1.465, 0.5125, 1.54, 0.585, 1.6125, 0.66, 1.685, 0.7325, 1.76, 0.805, 1.8325, 0.88, 1.905, 0.9525, 0, 1.025, 0.0725, 1.1, 0.145, 1.1725, 0.22, 1.245, 0.2925, 1.32, 0.365, 1.3925, 0.44, 1.465, 0.5125, 1.54, 0.585, 1.6125, 0.66, 1.685, 0.7325, 1.76, 0.805, 1.8325, 0.88, 1.905],
  "SoftwareVersions": "syngo_MR_E11",
  "SpacingBetweenSlices": 2.5,
  "StationName": "AWP66018",
  "TaskName": "langXtask",
  "TotalReadoutTime": 0.0481895,
  "TxRefAmp": 214.917,
  "dcmmeta_affine": [
    [-2.4961893558502197, -0.12776196002960205, -0.052105795592069626, 104.50591278076172],
    [-0.13084669411182404, 2.491485118865967, 0.15931285917758942, -87.69791412353516],
    [-0.043786682188510895, -0.1617971956729889, 2.4943745136260986, -40.86607360839844],
    [0.0, 0.0, 0.0, 1.0]
],
  "dcmmeta_reorient_transform": [
    [0.0, -1.0, 0.0, 79.0],
    [1.0, 0.0, 0.0, 0.0],
    [0.0, 0.0, 1.0, 0.0],
    [0.0, 0.0, 0.0, 1.0]
],
  "dcmmeta_shape": [80, 80, 54, 166],
  "dcmmeta_slice_dim": 2,
  "dcmmeta_version": 0.6,
  "global": {
    "const": {
      "AcquisitionMatrix": [80, 0, 0, 80],
      "AngioFlag": "N",
      "BitsAllocated": 16,
      "BitsStored": 12,
      "BodyPartExamined": "BRAIN",
      "Columns": 640,
      "EchoNumbers": 1,
      "EchoTime": 30.0,
      "EchoTrainLength": 60,
      "FlipAngle": 71.0,
      "HighBit": 11,
      "ImageOrientationPatient": [0.99847578782971, 0.05233867953837, -0.0175146721929, -0.0511047830025, 0.99659408391641, 0.06471887713089],
      "ImagePositionPatient": [-757.57242194405, -843.38235101498, -86.690995328533],
      "ImageType": [
        "ORIGINAL",
        "PRIMARY",
        "M",
        "ND",
        "NORM",
        "MOSAIC"
],
      "ImagedNucleus": "1H",
      "ImagingFrequency": 123.164417,
      "InPlanePhaseEncodingDirection": "COL",
      "MRAcquisitionType": "2D",
      "MagneticFieldStrength": 3.0,
      "Manufacturer": "SIEMENS",
      "ManufacturerModelName": "Prisma",
      "Modality": "MR",
      "NumberOfAverages": 1.0,
      "NumberOfPhaseEncodingSteps": 60,
      "PercentPhaseFieldOfView": 100.0,
      "PercentSampling": 100.0,
      "PerformedProcedureStepStartTime": "140906.378000",
      "PhotometricInterpretation": "MONOCHROME2",
      "PixelBandwidth": 1895.0,
      "PixelRepresentation": 0,
      "PixelSpacing": [2.5, 2.5],
      "ProtocolName": "func_ses-01_run-01_task-lang-task",
      "RepetitionTime": 2000.0,
      "Rows": 640,
      "SAR": 0.03833441281783,
      "SamplesPerPixel": 1,
      "ScanOptions": [
        "PFP",
        "FS"
],
      "ScanningSequence": "EP",
      "SequenceName": "*epfid2d1_80",
      "SequenceVariant": "SK",
      "SeriesDescription": "func_ses-01_run-01_task-lang-task",
      "SeriesNumber": 7,
      "SeriesTime": "142925.700000",
      "SliceLocation": -48.54082586067,
      "SliceThickness": 2.5,
      "SmallestImagePixelValue": 0,
      "SoftwareVersions": "syngo MR E11",
      "SpacingBetweenSlices": 2.4999999237301,
      "SpecificCharacterSet": "ISO_IR 100",
      "StudyID": "1",
      "StudyTime": "140906.238000",
      "TransmitCoilName": "Body",
      "VariableFlipAngleFlag": "N",
      "WindowCenterWidthExplanation": "Algo1",
      "dBdt": 0.0},
    "slices": {}
  },
  "time": {
    "samples": {
      "AcquisitionNumber": [1, 2, 3, 4, 5, 6, 7, 8, 9, 10, 11, 12, 13, 14, 15, 16, 17, 18, 19, 20, 21, 22, 23, 24, 25, 26, 27, 28, 29, 30, 31, 32, 33, 34, 35, 36, 37, 38, 39, 40, 41, 42, 43, 44, 45, 46, 47, 48, 49, 50, 51, 52, 53, 54, 55, 56, 57, 58, 59, 60, 61, 62, 63, 64, 65, 66, 67, 68, 69, 70, 71, 72, 73, 74, 75, 76, 77, 78, 79, 80, 81, 82, 83, 84, 85, 86, 87, 88, 89, 90, 91, 92, 93, 94, 95, 96, 97, 98, 99, 100, 101, 102, 103, 104, 105, 106, 107, 108, 109, 110, 111, 112, 113, 114, 115, 116, 117, 118, 119, 120, 121, 122, 123, 124, 125, 126, 127, 128, 129, 130, 131, 132, 133, 134, 135, 136, 137, 138, 139, 140, 141, 142, 143, 144, 145, 146, 147, 148, 149, 150, 151, 152, 153, 154, 155, 156, 157, 158, 159, 160, 161, 162, 163, 164, 165, 166],
      "AcquisitionTime": ["172109.867500", "172111.867500", "172113.867500", "172115.867500", "172117.867500", "172119.867500", "172121.867500", "172123.867500", "172125.867500", "172127.867500", "172129.867500", "172131.867500", "172133.867500", "172135.867500", "172137.867500", "172139.867500", "172141.867500", "172143.867500", "172145.867500", "172147.867500", "172149.867500", "172151.867500", "172153.867500", "172155.867500", "172157.867500", "172159.867500", "172201.867500", "172203.867500", "172205.867500", "172207.867500", "172209.867500", "172211.867500", "172213.867500", "172215.867500", "172217.867500", "172219.867500", "172221.867500", "172223.867500", "172225.867500", "172227.867500", "172229.867500", "172231.867500", "172233.867500", "172235.867500", "172237.867500", "172239.867500", "172241.867500", "172243.867500", "172245.867500", "172247.867500", "172249.867500", "172251.867500", "172253.867500", "172255.867500", "172257.867500", "172259.867500", "172301.867500", "172303.867500", "172305.867500", "172307.867500", "172309.867500", "172311.867500", "172313.867500", "172315.867500", "172317.867500", "172319.867500", "172321.867500", "172323.867500", "172325.867500", "172327.867500", "172329.867500", "172331.867500", "172333.867500", "172335.867500", "172337.867500", "172339.867500", "172341.867500", "172343.867500", "172345.867500", "172347.867500", "172349.867500", "172351.867500", "172353.867500", "172355.867500", "172357.867500", "172359.867500", "172401.867500", "172403.867500", "172405.867500", "172407.867500", "172409.867500", "172411.867500", "172413.867500", "172415.867500", "172417.867500", "172419.867500", "172421.867500", "172423.867500", "172425.867500", "172427.867500", "172429.867500", "172431.867500", "172433.867500", "172435.867500", "172437.867500", "172439.867500", "172441.867500", "172443.867500", "172445.867500", "172447.867500", "172449.867500", "172451.867500", "172453.867500", "172455.867500", "172457.867500", "172459.867500", "172501.867500", "172503.867500", "172505.867500", "172507.867500", "172509.867500", "172511.867500", "172513.867500", "172515.867500", "172517.867500", "172519.867500", "172521.867500", "172523.867500", "172525.867500", "172527.867500", "172529.867500", "172531.867500", "172533.867500", "172535.867500", "172537.867500", "172539.867500", "172541.867500", "172543.867500", "172545.867500", "172547.867500", "172549.867500", "172551.867500", "172553.867500", "172555.867500", "172557.867500", "172559.867500", "172601.867500", "172603.867500", "172605.867500", "172607.867500", "172609.867500", "172611.867500", "172613.867500", "172615.867500", "172617.867500", "172619.867500", "172621.867500", "172623.867500", "172625.867500", "172627.867500", "172629.867500", "172631.867500", "172633.867500", "172635.867500", "172637.867500", "172639.867500"],
      "ContentTime": ["142925.704000", "142925.708000", "142925.711000", "142925.714000", "142925.717000", "142925.720000", "142925.723000", "142925.733000", "142925.736000", "142925.739000", "142925.742000", "142925.745000", "142925.748000", "142925.751000", "142925.754000", "142925.757000", "142925.760000", "142925.763000", "142925.773000", "142925.776000", "142925.779000", "142925.782000", "142925.785000", "142925.788000", "142925.791000", "142925.794000", "143005.699000", "143005.702000", "143005.707000", "143005.710000", "143005.714000", "143005.717000", "143005.719000", "143005.722000", "143005.726000", "143005.728000", "143005.732000", "143005.735000", "143005.738000", "143005.741000", "143005.744000", "143005.747000", "143005.750000", "143005.753000", "143005.756000", "143005.759000", "143045.700000", "143045.703000", "143045.707000", "143045.710000", "143045.713000", "143045.716000", "143045.719000", "143045.722000", "143045.725000", "143045.728000", "143045.731000", "143045.734000", "143045.737000", "143045.740000", "143045.743000", "143045.746000", "143045.749000", "143045.752000", "143045.755000", "143045.757000", "143125.700000", "143125.703000", "143125.706000", "143125.709000", "143125.712000", "143125.715000", "143125.718000", "143125.721000", "143125.724000", "143125.727000", "143125.730000", "143125.733000", "143125.736000", "143125.739000", "143125.742000", "143125.745000", "143125.748000", "143125.751000", "143125.753000", "143125.756000", "143205.699000", "143205.702000", "143205.705000", "143205.708000", "143205.711000", "143205.714000", "143205.717000", "143205.720000", "143205.723000", "143205.726000", "143205.729000", "143205.732000", "143205.735000", "143205.738000", "143205.741000", "143205.744000", "143205.747000", "143205.750000", "143205.752000", "143205.755000", "143245.700000", "143245.704000", "143245.707000", "143245.710000", "143245.713000", "143245.716000", "143245.719000", "143245.722000", "143245.725000", "143245.728000", "143245.731000", "143245.734000", "143245.737000", "143245.740000", "143245.743000", "143245.746000", "143245.749000", "143245.752000", "143245.755000", "143245.758000", "143325.700000", "143325.703000", "143325.706000", "143325.709000", "143325.712000", "143325.715000", "143325.718000", "143325.721000", "143325.724000", "143325.727000", "143325.730000", "143325.733000", "143325.736000", "143325.739000", "143325.742000", "143325.745000", "143325.748000", "143325.751000", "143325.754000", "143325.757000", "143405.699000", "143405.703000", "143405.706000", "143405.709000", "143405.712000", "143405.715000", "143405.718000", "143405.721000", "143405.724000", "143405.727000", "143405.730000", "143405.733000", "143405.736000", "143405.739000", "143405.742000", "143405.745000", "143405.748000", "143405.751000", "143405.754000", "143405.757000"],
      "InstanceCreationTime": ["142925.704000", "142925.708000", "142925.711000", "142925.714000", "142925.717000", "142925.720000", "142925.723000", "142925.733000", "142925.736000", "142925.739000", "142925.742000", "142925.745000", "142925.748000", "142925.751000", "142925.754000", "142925.757000", "142925.760000", "142925.763000", "142925.773000", "142925.776000", "142925.779000", "142925.782000", "142925.785000", "142925.788000", "142925.791000", "142925.794000", "143005.699000", "143005.702000", "143005.707000", "143005.710000", "143005.714000", "143005.717000", "143005.719000", "143005.722000", "143005.726000", "143005.728000", "143005.732000", "143005.735000", "143005.738000", "143005.741000", "143005.744000", "143005.747000", "143005.750000", "143005.753000", "143005.756000", "143005.759000", "143045.700000", "143045.703000", "143045.707000", "143045.710000", "143045.713000", "143045.716000", "143045.719000", "143045.722000", "143045.725000", "143045.728000", "143045.731000", "143045.734000", "143045.737000", "143045.740000", "143045.743000", "143045.746000", "143045.749000", "143045.752000", "143045.755000", "143045.757000", "143125.700000", "143125.703000", "143125.706000", "143125.709000", "143125.712000", "143125.715000", "143125.718000", "143125.721000", "143125.724000", "143125.727000", "143125.730000", "143125.733000", "143125.736000", "143125.739000", "143125.742000", "143125.745000", "143125.748000", "143125.751000", "143125.753000", "143125.756000", "143205.699000", "143205.702000", "143205.705000", "143205.708000", "143205.711000", "143205.714000", "143205.717000", "143205.720000", "143205.723000", "143205.726000", "143205.729000", "143205.732000", "143205.735000", "143205.738000", "143205.741000", "143205.744000", "143205.747000", "143205.750000", "143205.752000", "143205.755000", "143245.700000", "143245.704000", "143245.707000", "143245.710000", "143245.713000", "143245.716000", "143245.719000", "143245.722000", "143245.725000", "143245.728000", "143245.731000", "143245.734000", "143245.737000", "143245.740000", "143245.743000", "143245.746000", "143245.749000", "143245.752000", "143245.755000", "143245.758000", "143325.700000", "143325.703000", "143325.706000", "143325.709000", "143325.712000", "143325.715000", "143325.718000", "143325.721000", "143325.724000", "143325.727000", "143325.730000", "143325.733000", "143325.736000", "143325.739000", "143325.742000", "143325.745000", "143325.748000", "143325.751000", "143325.754000", "143325.757000", "143405.699000", "143405.703000", "143405.706000", "143405.709000", "143405.712000", "143405.715000", "143405.718000", "143405.721000", "143405.724000", "143405.727000", "143405.730000", "143405.733000", "143405.736000", "143405.739000", "143405.742000", "143405.745000", "143405.748000", "143405.751000", "143405.754000", "143405.757000"],
      "InstanceNumber": [1, 2, 3, 4, 5, 6, 7, 8, 9, 10, 11, 12, 13, 14, 15, 16, 17, 18, 19, 20, 21, 22, 23, 24, 25, 26, 27, 28, 29, 30, 31, 32, 33, 34, 35, 36, 37, 38, 39, 40, 41, 42, 43, 44, 45, 46, 47, 48, 49, 50, 51, 52, 53, 54, 55, 56, 57, 58, 59, 60, 61, 62, 63, 64, 65, 66, 67, 68, 69, 70, 71, 72, 73, 74, 75, 76, 77, 78, 79, 80, 81, 82, 83, 84, 85, 86, 87, 88, 89, 90, 91, 92, 93, 94, 95, 96, 97, 98, 99, 100, 101, 102, 103, 104, 105, 106, 107, 108, 109, 110, 111, 112, 113, 114, 115, 116, 117, 118, 119, 120, 121, 122, 123, 124, 125, 126, 127, 128, 129, 130, 131, 132, 133, 134, 135, 136, 137, 138, 139, 140, 141, 142, 143, 144, 145, 146, 147, 148, 149, 150, 151, 152, 153, 154, 155, 156, 157, 158, 159, 160, 161, 162, 163, 164, 165, 166],
      "LargestImagePixelValue": [2163, 2249, 2479, 2059, 1881, 1990, 2388, 2372, 2149, 1882, 2366, 2141, 2070, 1956, 2414, 1971, 2383, 1961, 1888, 2287, 2275, 2240, 1929, 2344, 1963, 2011, 2326, 2429, 2437, 1906, 2411, 2350, 2031, 2405, 1981, 2360, 2078, 1869, 2354, 2034, 2669, 2293, 1892, 2148, 2609, 2143, 1980, 2517, 2137, 2255, 2294, 2382, 2231, 2031, 2712, 2147, 1856, 2342, 2002, 1874, 2407, 2002, 2273, 2338, 1927, 2735, 1955, 2128, 2337, 1948, 2407, 2031, 1865, 2364, 1994, 1956, 2393, 2016, 2369, 2275, 2052, 2392, 2011, 1859, 1885, 2489, 2051, 2115, 1987, 2413, 1938, 2378, 2338, 1894, 1834, 2429, 2018, 2387, 2062, 1969, 2148, 1981, 2407, 2070, 2340, 2187, 2016, 2280, 1959, 2365, 2020, 2386, 1907, 2306, 1873, 2366, 2280, 2319, 2298, 2083, 2411, 2234, 2152, 2118, 1911, 2181, 1865, 1978, 2453, 2113, 2463, 2075, 2315, 2269, 2083, 2387, 2364, 2024, 2398, 1946, 2352, 2063, 2093, 2362, 1918, 2366, 1986, 2571, 2038, 2495, 2045, 2445, 1996, 2388, 2011, 2361, 2141, 2336, 2032, 2383, 2155, 2325, 2008, 2371, 2015, 2354],
      "WindowCenter": [734.0, 734.0, 733.0, 732.0, 731.0, 733.0, 733.0, 733.0, 731.0, 731.0, 732.0, 731.0, 731.0, 731.0, 734.0, 732.0, 733.0, 732.0, 732.0, 733.0, 732.0, 732.0, 732.0, 732.0, 732.0, 732.0, 733.0, 732.0, 733.0, 731.0, 732.0, 733.0, 731.0, 732.0, 730.0, 732.0, 731.0, 731.0, 733.0, 732.0, 733.0, 732.0, 732.0, 733.0, 732.0, 730.0, 730.0, 732.0, 731.0, 731.0, 732.0, 733.0, 732.0, 732.0, 733.0, 731.0, 730.0, 733.0, 732.0, 732.0, 733.0, 732.0, 732.0, 733.0, 732.0, 733.0, 731.0, 731.0, 733.0, 731.0, 733.0, 731.0, 731.0, 732.0, 731.0, 731.0, 733.0, 732.0, 732.0, 732.0, 730.0, 732.0, 731.0, 731.0, 731.0, 732.0, 731.0, 731.0, 732.0, 732.0, 731.0, 732.0, 732.0, 731.0, 732.0, 733.0, 731.0, 732.0, 731.0, 731.0, 732.0, 732.0, 733.0, 732.0, 732.0, 731.0, 730.0, 732.0, 731.0, 732.0, 730.0, 732.0, 729.0, 731.0, 731.0, 732.0, 730.0, 732.0, 733.0, 732.0, 732.0, 731.0, 731.0, 731.0, 731.0, 731.0, 731.0, 732.0, 733.0, 732.0, 732.0, 731.0, 732.0, 732.0, 731.0, 733.0, 732.0, 731.0, 731.0, 730.0, 731.0, 730.0, 730.0, 731.0, 731.0, 733.0, 732.0, 732.0, 731.0, 731.0, 731.0, 732.0, 731.0, 732.0, 731.0, 732.0, 730.0, 731.0, 731.0, 732.0, 731.0, 731.0, 731.0, 732.0, 732.0, 733.0],
      "WindowWidth": [1571.0, 1570.0, 1570.0, 1566.0, 1563.0, 1568.0, 1569.0, 1568.0, 1564.0, 1564.0, 1567.0, 1563.0, 1563.0, 1564.0, 1572.0, 1565.0, 1569.0, 1565.0, 1566.0, 1569.0, 1567.0, 1566.0, 1565.0, 1566.0, 1564.0, 1565.0, 1569.0, 1566.0, 1569.0, 1563.0, 1566.0, 1568.0, 1563.0, 1567.0, 1560.0, 1565.0, 1564.0, 1564.0, 1568.0, 1566.0, 1569.0, 1564.0, 1565.0, 1567.0, 1565.0, 1561.0, 1560.0, 1566.0, 1562.0, 1563.0, 1566.0, 1567.0, 1565.0, 1565.0, 1568.0, 1564.0, 1561.0, 1567.0, 1565.0, 1566.0, 1568.0, 1566.0, 1566.0, 1568.0, 1565.0, 1568.0, 1563.0, 1563.0, 1567.0, 1562.0, 1567.0, 1562.0, 1562.0, 1567.0, 1563.0, 1562.0, 1569.0, 1565.0, 1565.0, 1566.0, 1561.0, 1565.0, 1561.0, 1561.0, 1562.0, 1565.0, 1562.0, 1562.0, 1565.0, 1566.0, 1563.0, 1565.0, 1566.0, 1563.0, 1565.0, 1569.0, 1562.0, 1565.0, 1562.0, 1562.0, 1565.0, 1564.0, 1567.0, 1565.0, 1565.0, 1563.0, 1560.0, 1565.0, 1562.0, 1565.0, 1561.0, 1565.0, 1558.0, 1564.0, 1563.0, 1566.0, 1561.0, 1564.0, 1568.0, 1564.0, 1566.0, 1563.0, 1563.0, 1562.0, 1561.0, 1563.0, 1561.0, 1564.0, 1568.0, 1564.0, 1565.0, 1562.0, 1564.0, 1565.0, 1563.0, 1568.0, 1565.0, 1562.0, 1564.0, 1561.0, 1564.0, 1560.0, 1561.0, 1564.0, 1563.0, 1568.0, 1565.0, 1566.0, 1563.0, 1564.0, 1563.0, 1566.0, 1562.0, 1564.0, 1562.0, 1566.0, 1561.0, 1564.0, 1562.0, 1566.0, 1562.0, 1563.0, 1562.0, 1567.0, 1565.0, 1567.0]
    },
    "slices": {}
  }
}