{
  "AcquisitionMatrixPE": 80,
  "AcquisitionNumber": 1,
  "AcquisitionTime": "19:55:40.290000",
  "BandwidthPerPixelPhaseEncode": 20.492,
  "BaseResolution": 80,
  "BodyPartExamined": "BRAIN",
  "ConsistencyInfo": "N4_VE11C_LATEST_20160120",
  "ConversionSoftware": "dcm2niix",
  "ConversionSoftwareVersion": "v1.0.20190410  GCC6.3.0",
  "DerivedVendorReportedEchoSpacing": 0.000609994,
  "DeviceSerialNumber": "66018",
  "DwellTime": 3.3e-06,
  "EchoTime": 0.03,
  "EchoTrainLength": 60,
  "EffectiveEchoSpacing": 0.000609994,
  "FlipAngle": 71,
  "ImageOrientationPatientDICOM": [0.994005, 0.0368415, -0.102944, -0.0473977, 0.993649, -0.102055],
  "ImageType": [
    "ORIGINAL",
    "PRIMARY",
    "M",
    "ND",
    "NORM",
    "MOSAIC"
],
  "ImagingFrequency": 123.164,
  "InPlanePhaseEncodingDirectionDICOM": "COL",
  "InstitutionAddress": "Stadium_1952_Princeton_NJ_US_08544",
  "InstitutionName": "Princeton_University",
  "InstitutionalDepartmentName": "NeuroScience",
  "MRAcquisitionType": "2D",
  "MagneticFieldStrength": 3,
  "Manufacturer": "Siemens",
  "ManufacturersModelName": "Prisma",
  "Modality": "MR",
  "MultibandAccelerationFactor": 2,
  "PartialFourier": 0.75,
  "PatientPosition": "HFS",
  "PercentPhaseFOV": 100,
  "PhaseEncodingDirection": "j-",
  "PhaseEncodingSteps": 60,
  "PhaseResolution": 1,
  "PixelBandwidth": 1895,
  "ProcedureStepDescription": "000005_NEU502_NEU502B-2026",
  "ProtocolName": "func_ses-01_run-01_task-lang-local",
  "PulseSequenceDetails": "%SiemensSeq%_ep2d_bold",
  "ReceiveCoilActiveElements": "HC1-7",
  "ReceiveCoilName": "HeadNeck_64",
  "ReconMatrixPE": 80,
  "RefLinesPE": 24,
  "RepetitionTime": 2,
  "SAR": 0.0460502,
  "ScanOptions": "PFP_FS",
  "ScanningSequence": "EP",
  "SequenceName": "_epfid2d1_80",
  "SequenceVariant": "SK",
  "SeriesDescription": "func_ses-01_run-01_task-lang-local",
  "SeriesNumber": 12,
  "ShimSetting": [733, 468, 2124, 765, -35, 198, 198, 127],
  "SliceThickness": 2.5,
  "SliceTiming": [0.9525, 0, 1.025, 0.0725, 1.1, 0.145, 1.1725, 0.22, 1.245, 0.2925, 1.32, 0.365, 1.3925, 0.44, 1.465, 0.5125, 1.54, 0.585, 1.6125, 0.66, 1.685, 0.7325, 1.76, 0.805, 1.8325, 0.88, 1.905, 0.9525, 0, 1.025, 0.0725, 1.1, 0.145, 1.1725, 0.22, 1.245, 0.2925, 1.32, 0.365, 1.3925, 0.44, 1.465, 0.5125, 1.54, 0.585, 1.6125, 0.66, 1.685, 0.7325, 1.76, 0.805, 1.8325, 0.88, 1.905],
  "SoftwareVersions": "syngo_MR_E11",
  "SpacingBetweenSlices": 2.5,
  "StationName": "AWP66018",
  "TaskName": "langXlocal",
  "TotalReadoutTime": 0.0481895,
  "TxRefAmp": 239.117,
  "dcmmeta_affine": [
    [-2.485011577606201, -0.11849424242973328, -0.2463260143995285, 106.43926239013672],
    [-0.09210384637117386, 2.4841222763061523, -0.26580655574798584, -82.44515228271484],
    [-0.25736019015312195, 0.25513792037963867, 2.4735946655273438, -70.2947769165039],
    [0.0, 0.0, 0.0, 1.0]
],
  "dcmmeta_reorient_transform": [
    [0.0, -1.0, 0.0, 79.0],
    [1.0, 0.0, 0.0, 0.0],
    [0.0, 0.0, 1.0, 0.0],
    [0.0, 0.0, 0.0, 1.0]
],
  "dcmmeta_shape": [80, 80, 54, 180],
  "dcmmeta_slice_dim": 2,
  "dcmmeta_version": 0.6,
  "global": {
    "const": {
      "AcquisitionMatrix": [80, 0, 0, 80],
      "AngioFlag": "N",
      "BitsAllocated": 16,
      "BitsStored": 12,
      "BodyPartExamined": "BRAIN",
      "Columns": 640,
      "EchoNumbers": 1,
      "EchoTime": 30.0,
      "EchoTrainLength": 60,
      "FlipAngle": 71.0,
      "HighBit": 11,
      "ImageOrientationPatient": [0.99400463649148, 0.03684153924126, -0.1029440800618, -0.0473976981929, 0.99364893216507, -0.1020551704385],
      "ImagePositionPatient": [-759.70307187721, -835.14384387616, 93.360591196202],
      "ImageType": [
        "ORIGINAL",
        "PRIMARY",
        "M",
        "ND",
        "NORM",
        "MOSAIC"
],
      "ImagedNucleus": "1H",
      "ImagingFrequency": 123.164466,
      "InPlanePhaseEncodingDirection": "COL",
      "MRAcquisitionType": "2D",
      "MagneticFieldStrength": 3.0,
      "Manufacturer": "SIEMENS",
      "ManufacturerModelName": "Prisma",
      "Modality": "MR",
      "NumberOfAverages": 1.0,
      "NumberOfPhaseEncodingSteps": 60,
      "PercentPhaseFieldOfView": 100.0,
      "PercentSampling": 100.0,
      "PerformedProcedureStepStartTime": "155030.531000",
      "PhotometricInterpretation": "MONOCHROME2",
      "PixelBandwidth": 1895.0,
      "PixelRepresentation": 0,
      "PixelSpacing": [2.5, 2.5],
      "ProtocolName": "func_ses-01_run-01_task-lang-local",
      "RepetitionTime": 2000.0,
      "Rows": 640,
      "SAR": 0.04605024135777,
      "SamplesPerPixel": 1,
      "ScanOptions": [
        "PFP",
        "FS"
],
      "ScanningSequence": "EP",
      "SequenceName": "*epfid2d1_80",
      "SequenceVariant": "SK",
      "SeriesDescription": "func_ses-01_run-01_task-lang-local",
      "SeriesNumber": 12,
      "SeriesTime": "170347.181000",
      "SliceLocation": -71.274035005776,
      "SliceThickness": 2.5,
      "SmallestImagePixelValue": 0,
      "SoftwareVersions": "syngo MR E11",
      "SpacingBetweenSlices": 2.5000000383435,
      "SpecificCharacterSet": "ISO_IR 100",
      "StudyID": "1",
      "StudyTime": "155030.460000",
      "TransmitCoilName": "Body",
      "VariableFlipAngleFlag": "N",
      "WindowCenterWidthExplanation": "Algo1",
      "dBdt": 0.0},
    "slices": {}
  },
  "time": {
    "samples": {
      "AcquisitionNumber": [1, 2, 3, 4, 5, 6, 7, 8, 9, 10, 11, 12, 13, 14, 15, 16, 17, 18, 19, 20, 21, 22, 23, 24, 25, 26, 27, 28, 29, 30, 31, 32, 33, 34, 35, 36, 37, 38, 39, 40, 41, 42, 43, 44, 45, 46, 47, 48, 49, 50, 51, 52, 53, 54, 55, 56, 57, 58, 59, 60, 61, 62, 63, 64, 65, 66, 67, 68, 69, 70, 71, 72, 73, 74, 75, 76, 77, 78, 79, 80, 81, 82, 83, 84, 85, 86, 87, 88, 89, 90, 91, 92, 93, 94, 95, 96, 97, 98, 99, 100, 101, 102, 103, 104, 105, 106, 107, 108, 109, 110, 111, 112, 113, 114, 115, 116, 117, 118, 119, 120, 121, 122, 123, 124, 125, 126, 127, 128, 129, 130, 131, 132, 133, 134, 135, 136, 137, 138, 139, 140, 141, 142, 143, 144, 145, 146, 147, 148, 149, 150, 151, 152, 153, 154, 155, 156, 157, 158, 159, 160, 161, 162, 163, 164, 165, 166, 167, 168, 169, 170, 171, 172, 173, 174, 175, 176, 177, 178, 179, 180],
      "AcquisitionTime": ["195540.290000", "195542.290000", "195544.290000", "195546.290000", "195548.290000", "195550.290000", "195552.290000", "195554.290000", "195556.290000", "195558.290000", "195600.290000", "195602.290000", "195604.290000", "195606.290000", "195608.290000", "195610.290000", "195612.290000", "195614.290000", "195616.290000", "195618.290000", "195620.290000", "195622.290000", "195624.290000", "195626.290000", "195628.290000", "195630.290000", "195632.290000", "195634.290000", "195636.290000", "195638.290000", "195640.290000", "195642.290000", "195644.290000", "195646.290000", "195648.290000", "195650.290000", "195652.290000", "195654.290000", "195656.290000", "195658.290000", "195700.290000", "195702.290000", "195704.290000", "195706.290000", "195708.290000", "195710.290000", "195712.290000", "195714.290000", "195716.290000", "195718.290000", "195720.290000", "195722.290000", "195724.290000", "195726.290000", "195728.290000", "195730.290000", "195732.290000", "195734.290000", "195736.290000", "195738.290000", "195740.290000", "195742.290000", "195744.290000", "195746.290000", "195748.290000", "195750.290000", "195752.290000", "195754.290000", "195756.290000", "195758.290000", "195800.290000", "195802.290000", "195804.290000", "195806.290000", "195808.290000", "195810.290000", "195812.290000", "195814.290000", "195816.290000", "195818.290000", "195820.290000", "195822.290000", "195824.290000", "195826.290000", "195828.290000", "195830.290000", "195832.290000", "195834.290000", "195836.290000", "195838.290000", "195840.290000", "195842.290000", "195844.290000", "195846.290000", "195848.290000", "195850.290000", "195852.290000", "195854.290000", "195856.290000", "195858.290000", "195900.290000", "195902.290000", "195904.290000", "195906.290000", "195908.290000", "195910.290000", "195912.290000", "195914.290000", "195916.290000", "195918.290000", "195920.290000", "195922.290000", "195924.290000", "195926.290000", "195928.290000", "195930.290000", "195932.290000", "195934.290000", "195936.290000", "195938.290000", "195940.290000", "195942.290000", "195944.290000", "195946.290000", "195948.290000", "195950.290000", "195952.290000", "195954.290000", "195956.290000", "195958.290000", "200000.290000", "200002.290000", "200004.290000", "200006.290000", "200008.290000", "200010.290000", "200012.290000", "200014.290000", "200016.290000", "200018.290000", "200020.290000", "200022.290000", "200024.290000", "200026.290000", "200028.290000", "200030.290000", "200032.290000", "200034.290000", "200036.290000", "200038.290000", "200040.290000", "200042.290000", "200044.290000", "200046.290000", "200048.290000", "200050.290000", "200052.290000", "200054.290000", "200056.290000", "200058.290000", "200100.290000", "200102.290000", "200104.290000", "200106.290000", "200108.290000", "200110.290000", "200112.290000", "200114.290000", "200116.290000", "200118.290000", "200120.290000", "200122.290000", "200124.290000", "200126.290000", "200128.290000", "200130.290000", "200132.290000", "200134.290000", "200136.290000", "200138.290000"],
      "ContentTime": ["170347.185000", "170347.189000", "170347.200000", "170347.202000", "170347.205000", "170347.208000", "170347.214000", "170347.217000", "170347.220000", "170347.223000", "170347.226000", "170347.229000", "170347.231000", "170347.239000", "170347.242000", "170347.245000", "170347.248000", "170347.251000", "170347.254000", "170347.257000", "170347.260000", "170427.179000", "170427.182000", "170427.185000", "170427.188000", "170427.191000", "170427.194000", "170427.197000", "170427.200000", "170427.203000", "170427.206000", "170427.209000", "170427.212000", "170427.215000", "170427.218000", "170427.221000", "170427.224000", "170427.227000", "170427.234000", "170427.237000", "170427.240000", "170507.180000", "170507.197000", "170507.200000", "170507.203000", "170507.206000", "170507.209000", "170507.212000", "170507.215000", "170507.218000", "170507.221000", "170507.224000", "170507.227000", "170507.237000", "170507.240000", "170507.243000", "170507.246000", "170507.249000", "170507.252000", "170507.255000", "170507.258000", "170547.180000", "170547.183000", "170547.186000", "170547.189000", "170547.192000", "170547.195000", "170547.198000", "170547.201000", "170547.204000", "170547.207000", "170547.210000", "170547.213000", "170547.216000", "170547.219000", "170547.221000", "170547.225000", "170547.227000", "170547.230000", "170547.233000", "170547.236000", "170627.179000", "170627.182000", "170627.185000", "170627.188000", "170627.191000", "170627.194000", "170627.197000", "170627.200000", "170627.203000", "170627.206000", "170627.209000", "170627.212000", "170627.215000", "170627.218000", "170627.221000", "170627.224000", "170627.227000", "170627.229000", "170627.232000", "170627.235000", "170707.179000", "170707.182000", "170707.185000", "170707.188000", "170707.191000", "170707.194000", "170707.197000", "170707.200000", "170707.203000", "170707.206000", "170707.209000", "170707.212000", "170707.215000", "170707.217000", "170707.220000", "170707.224000", "170707.226000", "170707.229000", "170707.232000", "170707.235000", "170747.180000", "170747.183000", "170747.186000", "170747.189000", "170747.192000", "170747.195000", "170747.198000", "170747.201000", "170747.204000", "170747.207000", "170747.210000", "170747.213000", "170747.216000", "170747.219000", "170747.222000", "170747.225000", "170747.228000", "170747.230000", "170747.233000", "170747.236000", "170827.180000", "170827.183000", "170827.186000", "170827.189000", "170827.192000", "170827.195000", "170827.198000", "170827.201000", "170827.204000", "170827.207000", "170827.210000", "170827.213000", "170827.216000", "170827.218000", "170827.221000", "170827.225000", "170827.227000", "170827.230000", "170827.233000", "170827.236000", "170905.721000", "170905.724000", "170905.727000", "170905.730000", "170905.733000", "170905.736000", "170905.739000", "170905.742000", "170905.745000", "170905.748000", "170905.753000", "170905.761000", "170905.766000", "170905.771000", "170905.775000", "170905.778000", "170905.781000", "170905.784000", "170905.787000"],
      "InstanceCreationTime": ["170347.185000", "170347.189000", "170347.200000", "170347.202000", "170347.205000", "170347.208000", "170347.214000", "170347.217000", "170347.220000", "170347.223000", "170347.226000", "170347.229000", "170347.231000", "170347.239000", "170347.242000", "170347.245000", "170347.248000", "170347.251000", "170347.254000", "170347.257000", "170347.260000", "170427.179000", "170427.182000", "170427.185000", "170427.188000", "170427.191000", "170427.194000", "170427.197000", "170427.200000", "170427.203000", "170427.206000", "170427.209000", "170427.212000", "170427.215000", "170427.218000", "170427.221000", "170427.224000", "170427.227000", "170427.234000", "170427.237000", "170427.240000", "170507.180000", "170507.197000", "170507.200000", "170507.203000", "170507.206000", "170507.209000", "170507.212000", "170507.215000", "170507.218000", "170507.221000", "170507.224000", "170507.227000", "170507.237000", "170507.240000", "170507.243000", "170507.246000", "170507.249000", "170507.252000", "170507.255000", "170507.258000", "170547.180000", "170547.183000", "170547.186000", "170547.189000", "170547.192000", "170547.195000", "170547.198000", "170547.201000", "170547.204000", "170547.207000", "170547.210000", "170547.213000", "170547.216000", "170547.219000", "170547.221000", "170547.225000", "170547.227000", "170547.230000", "170547.233000", "170547.236000", "170627.179000", "170627.182000", "170627.185000", "170627.188000", "170627.191000", "170627.194000", "170627.197000", "170627.200000", "170627.203000", "170627.206000", "170627.209000", "170627.212000", "170627.215000", "170627.218000", "170627.221000", "170627.224000", "170627.227000", "170627.229000", "170627.232000", "170627.235000", "170707.179000", "170707.182000", "170707.185000", "170707.188000", "170707.191000", "170707.194000", "170707.197000", "170707.200000", "170707.203000", "170707.206000", "170707.209000", "170707.212000", "170707.215000", "170707.217000", "170707.220000", "170707.224000", "170707.226000", "170707.229000", "170707.232000", "170707.235000", "170747.180000", "170747.183000", "170747.186000", "170747.189000", "170747.192000", "170747.195000", "170747.198000", "170747.201000", "170747.204000", "170747.207000", "170747.210000", "170747.213000", "170747.216000", "170747.219000", "170747.222000", "170747.225000", "170747.228000", "170747.230000", "170747.233000", "170747.236000", "170827.180000", "170827.183000", "170827.186000", "170827.189000", "170827.192000", "170827.195000", "170827.198000", "170827.201000", "170827.204000", "170827.207000", "170827.210000", "170827.213000", "170827.216000", "170827.218000", "170827.221000", "170827.225000", "170827.227000", "170827.230000", "170827.233000", "170827.236000", "170905.721000", "170905.724000", "170905.727000", "170905.730000", "170905.733000", "170905.736000", "170905.739000", "170905.742000", "170905.745000", "170905.748000", "170905.753000", "170905.761000", "170905.766000", "170905.771000", "170905.775000", "170905.778000", "170905.781000", "170905.784000", "170905.787000"],
      "InstanceNumber": [1, 2, 3, 4, 5, 6, 7, 8, 9, 10, 11, 12, 13, 14, 15, 16, 17, 18, 19, 20, 21, 22, 23, 24, 25, 26, 27, 28, 29, 30, 31, 32, 33, 34, 35, 36, 37, 38, 39, 40, 41, 42, 43, 44, 45, 46, 47, 48, 49, 50, 51, 52, 53, 54, 55, 56, 57, 58, 59, 60, 61, 62, 63, 64, 65, 66, 67, 68, 69, 70, 71, 72, 73, 74, 75, 76, 77, 78, 79, 80, 81, 82, 83, 84, 85, 86, 87, 88, 89, 90, 91, 92, 93, 94, 95, 96, 97, 98, 99, 100, 101, 102, 103, 104, 105, 106, 107, 108, 109, 110, 111, 112, 113, 114, 115, 116, 117, 118, 119, 120, 121, 122, 123, 124, 125, 126, 127, 128, 129, 130, 131, 132, 133, 134, 135, 136, 137, 138, 139, 140, 141, 142, 143, 144, 145, 146, 147, 148, 149, 150, 151, 152, 153, 154, 155, 156, 157, 158, 159, 160, 161, 162, 163, 164, 165, 166, 167, 168, 169, 170, 171, 172, 173, 174, 175, 176, 177, 178, 179, 180],
      "LargestImagePixelValue": [1940, 1837, 1821, 1838, 1890, 1815, 1850, 1802, 1867, 1787, 2061, 1745, 1761, 1909, 1748, 2056, 1808, 2103, 1818, 2063, 1770, 2048, 1853, 1751, 2004, 2279, 1745, 1917, 1785, 1925, 1956, 1904, 1789, 1856, 2164, 1760, 2001, 1761, 1906, 1744, 2122, 2031, 1750, 1820, 2187, 1793, 1973, 1793, 2080, 1806, 1828, 2012, 1893, 1753, 1892, 1999, 1916, 1757, 1872, 2201, 1761, 2087, 1934, 1936, 1743, 2068, 1759, 2083, 1864, 1991, 1951, 2291, 1768, 1837, 1998, 2002, 1778, 1837, 2163, 1771, 2063, 2069, 2235, 1983, 1847, 1779, 2076, 1758, 1916, 2201, 1733, 2133, 1868, 1969, 2248, 1751, 1898, 1802, 1792, 1801, 1880, 2161, 1880, 1915, 2210, 1816, 1854, 1823, 2192, 1780, 1907, 1964, 1811, 1852, 2163, 1743, 2235, 1764, 1886, 1763, 2018, 1771, 2202, 2265, 1694, 1833, 1983, 1837, 1802, 1789, 1847, 1912, 2024, 1820, 1724, 2121, 2543, 2501, 2030, 1714, 1700, 2048, 1723, 2236, 1725, 2183, 1869, 1783, 1951, 1877, 1967, 1976, 1756, 2020, 1720, 2370, 2112, 1878, 1785, 1986, 1719, 2048, 1777, 2128, 1949, 1768, 2079, 1707, 1924, 2016, 1772, 1827, 1962, 1834, 1781, 1825, 2104, 2381, 1741, 2237],
      "WindowCenter": [689.0, 688.0, 687.0, 687.0, 687.0, 687.0, 687.0, 688.0, 688.0, 689.0, 688.0, 687.0, 687.0, 687.0, 687.0, 688.0, 688.0, 688.0, 688.0, 687.0, 688.0, 689.0, 688.0, 688.0, 689.0, 689.0, 687.0, 688.0, 687.0, 688.0, 689.0, 688.0, 687.0, 688.0, 688.0, 688.0, 688.0, 688.0, 688.0, 688.0, 688.0, 688.0, 688.0, 687.0, 688.0, 688.0, 687.0, 688.0, 689.0, 687.0, 688.0, 688.0, 687.0, 688.0, 688.0, 688.0, 688.0, 686.0, 688.0, 687.0, 686.0, 688.0, 687.0, 687.0, 687.0, 687.0, 687.0, 688.0, 687.0, 687.0, 687.0, 687.0, 687.0, 688.0, 688.0, 688.0, 687.0, 687.0, 688.0, 688.0, 688.0, 689.0, 688.0, 687.0, 687.0, 687.0, 687.0, 687.0, 686.0, 688.0, 687.0, 689.0, 687.0, 687.0, 687.0, 686.0, 687.0, 686.0, 688.0, 684.0, 686.0, 689.0, 687.0, 687.0, 687.0, 688.0, 688.0, 688.0, 689.0, 688.0, 689.0, 689.0, 689.0, 688.0, 689.0, 687.0, 689.0, 688.0, 689.0, 688.0, 689.0, 688.0, 689.0, 687.0, 686.0, 687.0, 688.0, 687.0, 688.0, 688.0, 688.0, 683.0, 688.0, 687.0, 689.0, 689.0, 689.0, 687.0, 684.0, 683.0, 686.0, 687.0, 688.0, 689.0, 688.0, 688.0, 688.0, 689.0, 690.0, 690.0, 690.0, 688.0, 688.0, 689.0, 688.0, 690.0, 688.0, 687.0, 688.0, 688.0, 688.0, 688.0, 687.0, 688.0, 686.0, 689.0, 689.0, 688.0, 687.0, 687.0, 686.0, 689.0, 690.0, 684.0, 689.0, 689.0, 691.0, 690.0, 687.0, 687.0],
      "WindowWidth": [1469.0, 1467.0, 1464.0, 1465.0, 1463.0, 1465.0, 1465.0, 1468.0, 1467.0, 1469.0, 1468.0, 1465.0, 1465.0, 1465.0, 1466.0, 1468.0, 1467.0, 1467.0, 1466.0, 1465.0, 1466.0, 1470.0, 1469.0, 1466.0, 1470.0, 1469.0, 1466.0, 1467.0, 1465.0, 1467.0, 1468.0, 1467.0, 1465.0, 1468.0, 1467.0, 1466.0, 1467.0, 1467.0, 1466.0, 1466.0, 1468.0, 1467.0, 1467.0, 1465.0, 1467.0, 1467.0, 1466.0, 1466.0, 1469.0, 1465.0, 1468.0, 1467.0, 1464.0, 1468.0, 1467.0, 1468.0, 1467.0, 1463.0, 1467.0, 1466.0, 1463.0, 1467.0, 1465.0, 1464.0, 1465.0, 1465.0, 1464.0, 1467.0, 1465.0, 1465.0, 1466.0, 1465.0, 1464.0, 1466.0, 1466.0, 1468.0, 1464.0, 1465.0, 1468.0, 1468.0, 1467.0, 1468.0, 1467.0, 1464.0, 1464.0, 1464.0, 1466.0, 1465.0, 1463.0, 1466.0, 1465.0, 1468.0, 1465.0, 1466.0, 1464.0, 1463.0, 1464.0, 1462.0, 1467.0, 1458.0, 1463.0, 1470.0, 1465.0, 1466.0, 1466.0, 1467.0, 1468.0, 1469.0, 1469.0, 1467.0, 1470.0, 1470.0, 1470.0, 1466.0, 1468.0, 1464.0, 1469.0, 1468.0, 1469.0, 1467.0, 1470.0, 1467.0, 1470.0, 1463.0, 1462.0, 1465.0, 1466.0, 1465.0, 1467.0, 1467.0, 1467.0, 1454.0, 1466.0, 1464.0, 1470.0, 1470.0, 1469.0, 1465.0, 1457.0, 1454.0, 1463.0, 1466.0, 1467.0, 1470.0, 1468.0, 1468.0, 1467.0, 1469.0, 1472.0, 1472.0, 1472.0, 1468.0, 1467.0, 1470.0, 1468.0, 1471.0, 1467.0, 1464.0, 1467.0, 1467.0, 1466.0, 1468.0, 1466.0, 1468.0, 1461.0, 1470.0, 1468.0, 1467.0, 1466.0, 1466.0, 1465.0, 1469.0, 1472.0, 1457.0, 1470.0, 1470.0, 1475.0, 1471.0, 1465.0, 1465.0]
    },
    "slices": {}
  }
}