{
  "AcquisitionMatrixPE": 80,
  "AcquisitionNumber": 1,
  "AcquisitionTime": "19:18:20.070000",
  "BandwidthPerPixelPhaseEncode": 20.492,
  "BaseResolution": 80,
  "BodyPartExamined": "BRAIN",
  "ConsistencyInfo": "N4_VE11C_LATEST_20160120",
  "ConversionSoftware": "dcm2niix",
  "ConversionSoftwareVersion": "v1.0.20190410  GCC6.3.0",
  "DerivedVendorReportedEchoSpacing": 0.000609994,
  "DeviceSerialNumber": "66018",
  "DwellTime": 3.3e-06,
  "EchoTime": 0.03,
  "EchoTrainLength": 60,
  "EffectiveEchoSpacing": 0.000609994,
  "FlipAngle": 71,
  "ImageOrientationPatientDICOM": [0.994005, 0.0368415, -0.102944, -0.0473977, 0.993649, -0.102055],
  "ImageType": [
    "ORIGINAL",
    "PRIMARY",
    "M",
    "ND",
    "NORM",
    "MOSAIC"
],
  "ImagingFrequency": 123.164,
  "InPlanePhaseEncodingDirectionDICOM": "COL",
  "InstitutionAddress": "Stadium_1952_Princeton_NJ_US_08544",
  "InstitutionName": "Princeton_University",
  "InstitutionalDepartmentName": "NeuroScience",
  "MRAcquisitionType": "2D",
  "MagneticFieldStrength": 3,
  "Manufacturer": "Siemens",
  "ManufacturersModelName": "Prisma",
  "Modality": "MR",
  "MultibandAccelerationFactor": 2,
  "PartialFourier": 0.75,
  "PatientPosition": "HFS",
  "PercentPhaseFOV": 100,
  "PhaseEncodingDirection": "j-",
  "PhaseEncodingSteps": 60,
  "PhaseResolution": 1,
  "PixelBandwidth": 1895,
  "ProcedureStepDescription": "000005_NEU502_NEU502B-2026",
  "ProtocolName": "func_ses-01_run-01_task-percept-bind",
  "PulseSequenceDetails": "%SiemensSeq%_ep2d_bold",
  "ReceiveCoilActiveElements": "HC1-7",
  "ReceiveCoilName": "HeadNeck_64",
  "ReconMatrixPE": 80,
  "RefLinesPE": 24,
  "RepetitionTime": 2,
  "SAR": 0.046069,
  "ScanOptions": "PFP_FS",
  "ScanningSequence": "EP",
  "SequenceName": "_epfid2d1_80",
  "SequenceVariant": "SK",
  "SeriesDescription": "func_ses-01_run-01_task-percept-bind",
  "SeriesNumber": 11,
  "ShimSetting": [733, 468, 2124, 765, -35, 198, 198, 127],
  "SliceThickness": 2.5,
  "SliceTiming": [0.955, 0, 1.0275, 0.075, 1.1, 0.1475, 1.175, 0.22, 1.2475, 0.295, 1.32, 0.3675, 1.395, 0.44, 1.4675, 0.515, 1.54, 0.5875, 1.615, 0.66, 1.6875, 0.735, 1.76, 0.8075, 1.835, 0.88, 1.9075, 0.955, 0, 1.0275, 0.075, 1.1, 0.1475, 1.175, 0.22, 1.2475, 0.295, 1.32, 0.3675, 1.395, 0.44, 1.4675, 0.515, 1.54, 0.5875, 1.615, 0.66, 1.6875, 0.735, 1.76, 0.8075, 1.835, 0.88, 1.9075],
  "SoftwareVersions": "syngo_MR_E11",
  "SpacingBetweenSlices": 2.5,
  "StationName": "AWP66018",
  "TaskName": "perceptXbind",
  "TotalReadoutTime": 0.0481895,
  "TxRefAmp": 239.117,
  "dcmmeta_affine": [
    [-2.485011577606201, -0.11849424242973328, -0.2463260143995285, 106.43926239013672],
    [-0.09210384637117386, 2.4841222763061523, -0.26580655574798584, -82.44515228271484],
    [-0.25736019015312195, 0.25513792037963867, 2.4735946655273438, -70.2947769165039],
    [0.0, 0.0, 0.0, 1.0]
],
  "dcmmeta_reorient_transform": [
    [0.0, -1.0, 0.0, 79.0],
    [1.0, 0.0, 0.0, 0.0],
    [0.0, 0.0, 1.0, 0.0],
    [0.0, 0.0, 0.0, 1.0]
],
  "dcmmeta_shape": [80, 80, 54, 797],
  "dcmmeta_slice_dim": 2,
  "dcmmeta_version": 0.6,
  "global": {
    "const": {
      "AcquisitionMatrix": [80, 0, 0, 80],
      "AngioFlag": "N",
      "BitsAllocated": 16,
      "BitsStored": 12,
      "BodyPartExamined": "BRAIN",
      "Columns": 640,
      "EchoNumbers": 1,
      "EchoTime": 30.0,
      "EchoTrainLength": 60,
      "FlipAngle": 71.0,
      "HighBit": 11,
      "ImageOrientationPatient": [0.99400463649148, 0.03684153924126, -0.1029440800618, -0.0473976981929, 0.99364893216507, -0.1020551704385],
      "ImagePositionPatient": [-759.70307187721, -835.14384387616, 93.360591196202],
      "ImageType": [
        "ORIGINAL",
        "PRIMARY",
        "M",
        "ND",
        "NORM",
        "MOSAIC"
],
      "ImagedNucleus": "1H",
      "ImagingFrequency": 123.164454,
      "InPlanePhaseEncodingDirection": "COL",
      "MRAcquisitionType": "2D",
      "MagneticFieldStrength": 3.0,
      "Manufacturer": "SIEMENS",
      "ManufacturerModelName": "Prisma",
      "Modality": "MR",
      "NumberOfAverages": 1.0,
      "NumberOfPhaseEncodingSteps": 60,
      "PercentPhaseFieldOfView": 100.0,
      "PercentSampling": 100.0,
      "PerformedProcedureStepStartTime": "155030.531000",
      "PhotometricInterpretation": "MONOCHROME2",
      "PixelBandwidth": 1895.0,
      "PixelRepresentation": 0,
      "PixelSpacing": [2.5, 2.5],
      "ProtocolName": "func_ses-01_run-01_task-percept-bind",
      "RepetitionTime": 2000.0,
      "Rows": 640,
      "SAR": 0.04606896470457,
      "SamplesPerPixel": 1,
      "ScanOptions": [
        "PFP",
        "FS"
],
      "ScanningSequence": "EP",
      "SequenceName": "*epfid2d1_80",
      "SequenceVariant": "SK",
      "SeriesDescription": "func_ses-01_run-01_task-percept-bind",
      "SeriesNumber": 11,
      "SeriesTime": "162605.773000",
      "SliceLocation": -71.274035005776,
      "SliceThickness": 2.5,
      "SmallestImagePixelValue": 0,
      "SoftwareVersions": "syngo MR E11",
      "SpacingBetweenSlices": 2.5000000383435,
      "SpecificCharacterSet": "ISO_IR 100",
      "StudyID": "1",
      "StudyTime": "155030.460000",
      "TransmitCoilName": "Body",
      "VariableFlipAngleFlag": "N",
      "WindowCenterWidthExplanation": "Algo1",
      "dBdt": 0.0},
    "slices": {}
  },
  "time": {
    "samples": {
      "AcquisitionNumber": [1, 2, 3, 4, 5, 6, 7, 8, 9, 10, 11, 12, 13, 14, 15, 16, 17, 18, 19, 20, 21, 22, 23, 24, 25, 26, 27, 28, 29, 30, 31, 32, 33, 34, 35, 36, 37, 38, 39, 40, 41, 42, 43, 44, 45, 46, 47, 48, 49, 50, 51, 52, 53, 54, 55, 56, 57, 58, 59, 60, 61, 62, 63, 64, 65, 66, 67, 68, 69, 70, 71, 72, 73, 74, 75, 76, 77, 78, 79, 80, 81, 82, 83, 84, 85, 86, 87, 88, 89, 90, 91, 92, 93, 94, 95, 96, 97, 98, 99, 100, 101, 102, 103, 104, 105, 106, 107, 108, 109, 110, 111, 112, 113, 114, 115, 116, 117, 118, 119, 120, 121, 122, 123, 124, 125, 126, 127, 128, 129, 130, 131, 132, 133, 134, 135, 136, 137, 138, 139, 140, 141, 142, 143, 144, 145, 146, 147, 148, 149, 150, 151, 152, 153, 154, 155, 156, 157, 158, 159, 160, 161, 162, 163, 164, 165, 166, 167, 168, 169, 170, 171, 172, 173, 174, 175, 176, 177, 178, 179, 180, 181, 182, 183, 184, 185, 186, 187, 188, 189, 190, 191, 192, 193, 194, 195, 196, 197, 198, 199, 200, 201, 202, 203, 204, 205, 206, 207, 208, 209, 210, 211, 212, 213, 214, 215, 216, 217, 218, 219, 220, 221, 222, 223, 224, 225, 226, 227, 228, 229, 230, 231, 232, 233, 234, 235, 236, 237, 238, 239, 240, 241, 242, 243, 244, 245, 246, 247, 248, 249, 250, 251, 252, 253, 254, 255, 256, 257, 258, 259, 260, 261, 262, 263, 264, 265, 266, 267, 268, 269, 270, 271, 272, 273, 274, 275, 276, 277, 278, 279, 280, 281, 282, 283, 284, 285, 286, 287, 288, 289, 290, 291, 292, 293, 294, 295, 296, 297, 298, 299, 300, 301, 302, 303, 304, 305, 306, 307, 308, 309, 310, 311, 312, 313, 314, 315, 316, 317, 318, 319, 320, 321, 322, 323, 324, 325, 326, 327, 328, 329, 330, 331, 332, 333, 334, 335, 336, 337, 338, 339, 340, 341, 342, 343, 344, 345, 346, 347, 348, 349, 350, 351, 352, 353, 354, 355, 356, 357, 358, 359, 360, 361, 362, 363, 364, 365, 366, 367, 368, 369, 370, 371, 372, 373, 374, 375, 376, 377, 378, 379, 380, 381, 382, 383, 384, 385, 386, 387, 388, 389, 390, 391, 392, 393, 394, 395, 396, 397, 398, 399, 400, 401, 402, 403, 404, 405, 406, 407, 408, 409, 410, 411, 412, 413, 414, 415, 416, 417, 418, 419, 420, 421, 422, 423, 424, 425, 426, 427, 428, 429, 430, 431, 432, 433, 434, 435, 436, 437, 438, 439, 440, 441, 442, 443, 444, 445, 446, 447, 448, 449, 450, 451, 452, 453, 454, 455, 456, 457, 458, 459, 460, 461, 462, 463, 464, 465, 466, 467, 468, 469, 470, 471, 472, 473, 474, 475, 476, 477, 478, 479, 480, 481, 482, 483, 484, 485, 486, 487, 488, 489, 490, 491, 492, 493, 494, 495, 496, 497, 498, 499, 500, 501, 502, 503, 504, 505, 506, 507, 508, 509, 510, 511, 512, 513, 514, 515, 516, 517, 518, 519, 520, 521, 522, 523, 524, 525, 526, 527, 528, 529, 530, 531, 532, 533, 534, 535, 536, 537, 538, 539, 540, 541, 542, 543, 544, 545, 546, 547, 548, 549, 550, 551, 552, 553, 554, 555, 556, 557, 558, 559, 560, 561, 562, 563, 564, 565, 566, 567, 568, 569, 570, 571, 572, 573, 574, 575, 576, 577, 578, 579, 580, 581, 582, 583, 584, 585, 586, 587, 588, 589, 590, 591, 592, 593, 594, 595, 596, 597, 598, 599, 600, 601, 602, 603, 604, 605, 606, 607, 608, 609, 610, 611, 612, 613, 614, 615, 616, 617, 618, 619, 620, 621, 622, 623, 624, 625, 626, 627, 628, 629, 630, 631, 632, 633, 634, 635, 636, 637, 638, 639, 640, 641, 642, 643, 644, 645, 646, 647, 648, 649, 650, 651, 652, 653, 654, 655, 656, 657, 658, 659, 660, 661, 662, 663, 664, 665, 666, 667, 668, 669, 670, 671, 672, 673, 674, 675, 676, 677, 678, 679, 680, 681, 682, 683, 684, 685, 686, 687, 688, 689, 690, 691, 692, 693, 694, 695, 696, 697, 698, 699, 700, 701, 702, 703, 704, 705, 706, 707, 708, 709, 710, 711, 712, 713, 714, 715, 716, 717, 718, 719, 720, 721, 722, 723, 724, 725, 726, 727, 728, 729, 730, 731, 732, 733, 734, 735, 736, 737, 738, 739, 740, 741, 742, 743, 744, 745, 746, 747, 748, 749, 750, 751, 752, 753, 754, 755, 756, 757, 758, 759, 760, 761, 762, 763, 764, 765, 766, 767, 768, 769, 770, 771, 772, 773, 774, 775, 776, 777, 778, 779, 780, 781, 782, 783, 784, 785, 786, 787, 788, 789, 790, 791, 792, 793, 794, 795, 796, 797],
      "AcquisitionTime": ["191820.070000", "191822.070000", "191824.070000", "191826.070000", "191828.070000", "191830.070000", "191832.070000", "191834.070000", "191836.070000", "191838.070000", "191840.070000", "191842.070000", "191844.070000", "191846.070000", "191848.070000", "191850.070000", "191852.070000", "191854.070000", "191856.070000", "191858.070000", "191900.070000", "191902.070000", "191904.070000", "191906.070000", "191908.070000", "191910.070000", "191912.070000", "191914.070000", "191916.070000", "191918.070000", "191920.070000", "191922.070000", "191924.070000", "191926.070000", "191928.070000", "191930.070000", "191932.070000", "191934.070000", "191936.070000", "191938.070000", "191940.070000", "191942.070000", "191944.070000", "191946.070000", "191948.070000", "191950.070000", "191952.070000", "191954.070000", "191956.070000", "191958.070000", "192000.070000", "192002.070000", "192004.070000", "192006.070000", "192008.070000", "192010.070000", "192012.070000", "192014.070000", "192016.070000", "192018.070000", "192020.070000", "192022.070000", "192024.070000", "192026.070000", "192028.070000", "192030.070000", "192032.070000", "192034.070000", "192036.070000", "192038.070000", "192040.070000", "192042.070000", "192044.070000", "192046.070000", "192048.070000", "192050.070000", "192052.070000", "192054.070000", "192056.070000", "192058.070000", "192100.070000", "192102.070000", "192104.070000", "192106.070000", "192108.070000", "192110.070000", "192112.070000", "192114.070000", "192116.070000", "192118.070000", "192120.070000", "192122.070000", "192124.070000", "192126.070000", "192128.070000", "192130.070000", "192132.070000", "192134.070000", "192136.070000", "192138.070000", "192140.070000", "192142.070000", "192144.070000", "192146.070000", "192148.070000", "192150.070000", "192152.070000", "192154.070000", "192156.070000", "192158.070000", "192200.070000", "192202.070000", "192204.070000", "192206.070000", "192208.070000", "192210.070000", "192212.070000", "192214.070000", "192216.070000", "192218.070000", "192220.070000", "192222.070000", "192224.070000", "192226.070000", "192228.070000", "192230.070000", "192232.070000", "192234.070000", "192236.070000", "192238.070000", "192240.070000", "192242.070000", "192244.070000", "192246.070000", "192248.070000", "192250.070000", "192252.070000", "192254.070000", "192256.070000", "192258.070000", "192300.070000", "192302.070000", "192304.070000", "192306.070000", "192308.070000", "192310.070000", "192312.070000", "192314.070000", "192316.070000", "192318.070000", "192320.070000", "192322.070000", "192324.070000", "192326.070000", "192328.070000", "192330.070000", "192332.070000", "192334.070000", "192336.070000", "192338.070000", "192340.070000", "192342.070000", "192344.070000", "192346.070000", "192348.070000", "192350.070000", "192352.070000", "192354.070000", "192356.070000", "192358.070000", "192400.070000", "192402.070000", "192404.070000", "192406.070000", "192408.070000", "192410.070000", "192412.070000", "192414.070000", "192416.070000", "192418.070000", "192420.070000", "192422.070000", "192424.070000", "192426.070000", "192428.070000", "192430.070000", "192432.070000", "192434.070000", "192436.070000", "192438.070000", "192440.070000", "192442.070000", "192444.070000", "192446.070000", "192448.070000", "192450.070000", "192452.070000", "192454.070000", "192456.070000", "192458.070000", "192500.070000", "192502.070000", "192504.070000", "192506.070000", "192508.070000", "192510.070000", "192512.070000", "192514.070000", "192516.070000", "192518.070000", "192520.070000", "192522.070000", "192524.070000", "192526.070000", "192528.070000", "192530.070000", "192532.070000", "192534.070000", "192536.070000", "192538.070000", "192540.070000", "192542.070000", "192544.070000", "192546.070000", "192548.070000", "192550.070000", "192552.070000", "192554.070000", "192556.070000", "192558.070000", "192600.070000", "192602.070000", "192604.070000", "192606.070000", "192608.070000", "192610.070000", "192612.070000", "192614.070000", "192616.070000", "192618.070000", "192620.070000", "192622.070000", "192624.070000", "192626.070000", "192628.070000", "192630.070000", "192632.070000", "192634.070000", "192636.070000", "192638.070000", "192640.070000", "192642.070000", "192644.070000", "192646.070000", "192648.070000", "192650.070000", "192652.070000", "192654.070000", "192656.070000", "192658.070000", "192700.070000", "192702.070000", "192704.070000", "192706.070000", "192708.070000", "192710.070000", "192712.070000", "192714.070000", "192716.070000", "192718.070000", "192720.070000", "192722.070000", "192724.070000", "192726.070000", "192728.070000", "192730.070000", "192732.070000", "192734.070000", "192736.070000", "192738.070000", "192740.070000", "192742.070000", "192744.070000", "192746.070000", "192748.070000", "192750.070000", "192752.070000", "192754.070000", "192756.070000", "192758.070000", "192800.070000", "192802.070000", "192804.070000", "192806.070000", "192808.070000", "192810.070000", "192812.070000", "192814.070000", "192816.070000", "192818.070000", "192820.070000", "192822.070000", "192824.070000", "192826.070000", "192828.070000", "192830.070000", "192832.070000", "192834.070000", "192836.070000", "192838.070000", "192840.070000", "192842.070000", "192844.070000", "192846.070000", "192848.070000", "192850.070000", "192852.070000", "192854.070000", "192856.070000", "192858.070000", "192900.070000", "192902.070000", "192904.070000", "192906.070000", "192908.070000", "192910.070000", "192912.070000", "192914.070000", "192916.070000", "192918.070000", "192920.070000", "192922.070000", "192924.070000", "192926.070000", "192928.070000", "192930.070000", "192932.070000", "192934.070000", "192936.070000", "192938.070000", "192940.070000", "192942.070000", "192944.070000", "192946.070000", "192948.070000", "192950.070000", "192952.070000", "192954.070000", "192956.070000", "192958.070000", "193000.070000", "193002.070000", "193004.070000", "193006.070000", "193008.070000", "193010.070000", "193012.070000", "193014.070000", "193016.070000", "193018.070000", "193020.070000", "193022.070000", "193024.070000", "193026.070000", "193028.070000", "193030.070000", "193032.070000", "193034.070000", "193036.070000", "193038.070000", "193040.070000", "193042.070000", "193044.070000", "193046.070000", "193048.070000", "193050.070000", "193052.070000", "193054.070000", "193056.070000", "193058.070000", "193100.070000", "193102.070000", "193104.070000", "193106.070000", "193108.070000", "193110.070000", "193112.070000", "193114.070000", "193116.070000", "193118.070000", "193120.070000", "193122.070000", "193124.070000", "193126.070000", "193128.070000", "193130.070000", "193132.070000", "193134.070000", "193136.070000", "193138.070000", "193140.070000", "193142.070000", "193144.070000", "193146.070000", "193148.070000", "193150.070000", "193152.070000", "193154.070000", "193156.070000", "193158.070000", "193200.070000", "193202.070000", "193204.070000", "193206.070000", "193208.070000", "193210.070000", "193212.070000", "193214.070000", "193216.070000", "193218.070000", "193220.070000", "193222.070000", "193224.070000", "193226.070000", "193228.070000", "193230.070000", "193232.070000", "193234.070000", "193236.070000", "193238.070000", "193240.070000", "193242.070000", "193244.070000", "193246.070000", "193248.070000", "193250.070000", "193252.070000", "193254.070000", "193256.070000", "193258.070000", "193300.070000", "193302.070000", "193304.070000", "193306.070000", "193308.070000", "193310.070000", "193312.070000", "193314.070000", "193316.070000", "193318.070000", "193320.070000", "193322.070000", "193324.070000", "193326.070000", "193328.070000", "193330.070000", "193332.070000", "193334.070000", "193336.070000", "193338.070000", "193340.070000", "193342.070000", "193344.070000", "193346.070000", "193348.070000", "193350.070000", "193352.070000", "193354.070000", "193356.070000", "193358.070000", "193400.070000", "193402.070000", "193404.070000", "193406.070000", "193408.070000", "193410.070000", "193412.070000", "193414.070000", "193416.070000", "193418.070000", "193420.070000", "193422.070000", "193424.070000", "193426.070000", "193428.070000", "193430.070000", "193432.070000", "193434.070000", "193436.070000", "193438.070000", "193440.070000", "193442.070000", "193444.070000", "193446.070000", "193448.070000", "193450.070000", "193452.070000", "193454.070000", "193456.070000", "193458.070000", "193500.070000", "193502.070000", "193504.070000", "193506.070000", "193508.070000", "193510.070000", "193512.070000", "193514.070000", "193516.070000", "193518.070000", "193520.070000", "193522.070000", "193524.070000", "193526.070000", "193528.070000", "193530.070000", "193532.070000", "193534.070000", "193536.070000", "193538.070000", "193540.070000", "193542.070000", "193544.070000", "193546.070000", "193548.070000", "193550.070000", "193552.070000", "193554.070000", "193556.070000", "193558.070000", "193600.070000", "193602.070000", "193604.070000", "193606.070000", "193608.070000", "193610.070000", "193612.070000", "193614.070000", "193616.070000", "193618.070000", "193620.070000", "193622.070000", "193624.070000", "193626.070000", "193628.070000", "193630.070000", "193632.070000", "193634.070000", "193636.070000", "193638.070000", "193640.070000", "193642.070000", "193644.070000", "193646.070000", "193648.070000", "193650.070000", "193652.070000", "193654.070000", "193656.070000", "193658.070000", "193700.070000", "193702.070000", "193704.070000", "193706.070000", "193708.070000", "193710.070000", "193712.070000", "193714.070000", "193716.070000", "193718.070000", "193720.070000", "193722.070000", "193724.070000", "193726.070000", "193728.070000", "193730.070000", "193732.070000", "193734.070000", "193736.070000", "193738.070000", "193740.070000", "193742.070000", "193744.070000", "193746.070000", "193748.070000", "193750.070000", "193752.070000", "193754.070000", "193756.070000", "193758.070000", "193800.070000", "193802.070000", "193804.070000", "193806.070000", "193808.070000", "193810.070000", "193812.070000", "193814.070000", "193816.070000", "193818.070000", "193820.070000", "193822.070000", "193824.070000", "193826.070000", "193828.070000", "193830.070000", "193832.070000", "193834.070000", "193836.070000", "193838.070000", "193840.070000", "193842.070000", "193844.070000", "193846.070000", "193848.070000", "193850.070000", "193852.070000", "193854.070000", "193856.070000", "193858.070000", "193900.070000", "193902.070000", "193904.070000", "193906.070000", "193908.070000", "193910.070000", "193912.070000", "193914.070000", "193916.070000", "193918.070000", "193920.070000", "193922.070000", "193924.070000", "193926.070000", "193928.070000", "193930.070000", "193932.070000", "193934.070000", "193936.070000", "193938.070000", "193940.070000", "193942.070000", "193944.070000", "193946.070000", "193948.070000", "193950.070000", "193952.070000", "193954.070000", "193956.070000", "193958.070000", "194000.070000", "194002.070000", "194004.070000", "194006.070000", "194008.070000", "194010.070000", "194012.070000", "194014.070000", "194016.070000", "194018.070000", "194020.070000", "194022.070000", "194024.070000", "194026.070000", "194028.070000", "194030.070000", "194032.070000", "194034.070000", "194036.070000", "194038.070000", "194040.070000", "194042.070000", "194044.070000", "194046.070000", "194048.070000", "194050.070000", "194052.070000", "194054.070000", "194056.070000", "194058.070000", "194100.070000", "194102.070000", "194104.070000", "194106.070000", "194108.070000", "194110.070000", "194112.070000", "194114.070000", "194116.070000", "194118.070000", "194120.070000", "194122.070000", "194124.070000", "194126.070000", "194128.070000", "194130.070000", "194132.070000", "194134.070000", "194136.070000", "194138.070000", "194140.070000", "194142.070000", "194144.070000", "194146.070000", "194148.070000", "194150.070000", "194152.070000", "194154.070000", "194156.070000", "194158.070000", "194200.070000", "194202.070000", "194204.070000", "194206.070000", "194208.070000", "194210.070000", "194212.070000", "194214.070000", "194216.070000", "194218.070000", "194220.070000", "194222.070000", "194224.070000", "194226.070000", "194228.070000", "194230.070000", "194232.070000", "194234.070000", "194236.070000", "194238.070000", "194240.070000", "194242.070000", "194244.070000", "194246.070000", "194248.070000", "194250.070000", "194252.070000", "194254.070000", "194256.070000", "194258.070000", "194300.070000", "194302.070000", "194304.070000", "194306.070000", "194308.070000", "194310.070000", "194312.070000", "194314.070000", "194316.070000", "194318.070000", "194320.070000", "194322.070000", "194324.070000", "194326.070000", "194328.070000", "194330.070000", "194332.070000", "194334.070000", "194336.070000", "194338.070000", "194340.070000", "194342.070000", "194344.070000", "194346.070000", "194348.070000", "194350.070000", "194352.070000", "194354.070000", "194356.070000", "194358.070000", "194400.070000", "194402.070000", "194404.070000", "194406.070000", "194408.070000", "194410.070000", "194412.070000", "194414.070000", "194416.070000", "194418.070000", "194420.070000", "194422.070000", "194424.070000", "194426.070000", "194428.070000", "194430.070000", "194432.070000", "194434.070000", "194436.070000", "194438.070000", "194440.070000", "194442.070000", "194444.070000", "194446.070000", "194448.070000", "194450.070000", "194452.070000"],
